comp_sig_gzip_ratio,comp_sig_lzma_ratio,comp_sig_lempel_ziv_complexity,comp_rr_approx_entropy,comp_rr_permutation_entropy,OTHER_vs_NORM
-0.5467555338260753,-0.31783527309306714,-0.5867110760912183,-0.2756510596464944,-1.2629242446909494,0
-0.019258981428079143,-0.18756172277402314,-0.8979708365498371,-0.07599411725063848,0.7498704295125505,1
0.6651511023794469,0.7569215170390432,-0.08091396534596365,0.9023004181866974,0.9147871524479079,0
-1.4414965214378657,-1.4577288383846987,-0.19763637551794613,-0.18350541791655345,0.6243911935844265,0
1.2594193702708603,1.033752811467011,1.2030325465458374,0.5780253589781154,0.4981213686293445,0
-0.6836375505875804,-1.0180556060579264,-1.0146932467218188,0.3952207410623302,-0.7930078584240925,0
1.4931203744978208,1.3594366872646202,-0.19763637551794613,2.578343258575805,0.34518369858706816,1
-0.7737793665036938,-0.7900768929996003,-0.8201558964351823,-0.22275850878342973,-0.8740755636124581,0
0.925560792803774,1.033752811467011,-0.19763637551794613,0.6607234542325278,-0.2494417321367613,1
0.20776485124953936,0.18697473439322673,-0.5478036060338917,3.3169461388575123,1.0149027295312998,1
1.7334985502741223,1.2942999121050978,-0.5088961359765642,-0.2647405753829878,0.909076890919322,1
1.4063171443563778,1.392005074844381,1.2808474866604922,1.0357124955864176,0.8980327851535389,1
-2.1559538772174296,-2.2719385278787216,-0.39217372580458176,-0.9584827191501256,-0.059399559525643235,0
0.4614973701245246,0.4638060288211945,2.5258865284949663,0.9210507330703235,0.9337153069245697,0
1.069119981114621,1.0826053928366526,0.4637906154566184,-1.1187554643117514,0.3892228840555374,0
0.29456808139098145,0.5615111915604778,-0.08091396534596365,0.4637398372898901,0.40646135483232915,0
0.09091434913605916,0.36610086608191234,0.6972354358005824,0.4219288599913151,0.9421990150284888,1
-0.23626705678168525,-0.36668785446270874,-1.1703231269511278,0.27401907467443765,0.8335024925414016,0
1.5465377468925543,1.3594366872646202,1.0863101363738557,1.7970294360609316,0.951035013751926,0
-0.2830072576270777,-0.12242494761450172,-0.4310811958619091,-0.30935500910046043,-1.0509734843216907,1
-1.120992287069463,-1.1971817377466114,-0.8201558964351823,-0.22275850878342973,-0.825673899654273,0
1.436364416328416,1.245447330735456,0.07471591488334527,-0.22275850878342643,-0.09393326566432841,1
0.7853401902675976,0.6917847418795205,-1.0146932467218188,0.061668740490184525,0.6311849883865991,1
-0.6268815924181755,-0.6272349551007955,-0.35326625574725506,-0.2756510596464944,-0.7848872166738774,1
0.9622852363251532,1.0826053928366526,1.9422744776350558,-1.1187554643117514,-0.16395520900413388,1
-0.9340314836878951,-0.9529188308984049,-0.7034334862632008,0.5328841459942808,0.5095337449462183,1
-1.862158329046394,-2.1579491713495584,-1.4037679472950917,1.382123953425376,0.13573986933237409,1
1.8703805670356273,1.489710237583663,-0.8201558964351823,-0.2756510596464944,0.9051124296105276,1
-0.3130545295991149,0.007848602704542263,1.125217606431183,1.7783898788600625,0.6287328936098142,0
-0.7303777514329728,-1.0506239936376875,-0.9757857766644912,-0.3021394149930495,0.29283554649231375,1
-2.012394688906583,-2.1579491713495584,-0.8201558964351823,-0.3021394149930495,0.9147871524479141,1
1.1025058388613296,0.9360476487277276,1.3975698968324735,-1.1762733767173916,0.5095337449462183,0
-0.9373700694625656,-1.0343397998478072,-1.0536007167791464,-0.9584827191501256,0.5188317371298173,1
-1.1042993581961087,-1.0994765750073288,-0.5867110760912183,-0.7818194154714104,0.9529685757340299,0
-0.8605825966451359,-0.8063610867894812,-0.19763637551794613,0.3414797805288475,0.6797711510363041,0
0.49154464209656273,0.39866925366167305,-0.9757857766644912,-1.1762733767173916,0.5095337449462183,1
0.975639579423837,0.9197634549378478,-0.4310811958619091,1.116772431331242,-0.012104503036910248,1
0.471513127448537,0.6429321605098801,-0.19763637551794613,1.4809181290033009,0.8335101880816745,1
-0.20288119903497662,0.04041699028430298,0.03580844482601786,0.7335660580381165,0.8385613965048878,0
1.4864432029484789,1.392005074844381,2.6815164087242747,-1.2447699277396904,-1.1472594396150797,0
-0.34310180157115305,-0.2689826917234255,-0.6256185461485457,-1.3277232594373092,-2.192274883556252,0
-0.9540629983359199,-1.0831923812174484,-0.8201558964351823,-1.2447699277396904,-0.7448020909206114,1
1.6867583494287306,1.4082892686342607,0.6194204956859276,0.38765591793311716,0.3554840102691091,0
1.7234827929501098,1.4571418500039024,0.658327965743255,-1.1187554643117514,-2.27645476685964,1
1.3261910857642776,1.3757208810545,1.9422744776350558,-0.2756510596464944,0.6368075304808831,1
1.9004278390076654,1.619983787902707,1.358662426775146,-1.3277232594373092,-1.0075292609272835,1
-0.5467555338260753,-0.5295297923615134,0.5416055555712732,-0.22275850878342643,-0.825673899654273,1
0.11094586378408397,0.4475218350313147,0.191438325055327,-1.0697714212619565,0.6463658013874503,1
-0.032613324526762966,0.007848602704542263,-0.31435878568992764,0.20591458211985306,0.7703675800638599,1
0.2311349516722356,0.36610086608191234,-0.0030990252313095523,-0.2524729630328498,-0.3748860627227082,0
0.9689624078744951,1.3757208810545,4.665797381647968,-1.3277232594373092,-1.4547040928100263,0
-0.6903147221369222,-0.4481088234121111,0.30816073522730925,-1.1762733767173916,0.8754040619411921,0
-0.4031963455152284,-0.4969614047817516,-1.0536007167791464,2.036510726578669,0.4732226127811253,1
0.7653086756195728,0.903479261147967,0.6972354358005824,-0.3467339046829894,0.15738118516142793,0
-0.4833224041073286,-0.5458139861513932,-0.042006495288636245,0.7593862525370328,-0.1751182423511101,1
-0.34310180157115305,-0.17127752898414333,-0.19763637551794613,-1.1762733767173916,-1.4291409102648212,0
1.2226949267494802,1.0011844238872503,0.6194204956859276,-1.3277232594373092,-1.0075292609272835,1
1.299482399566911,1.245447330735456,2.1368118279216923,0.8974669642217662,0.4931948694510478,0
-1.6418116679181174,-1.7671285203924272,-0.6645260162058731,1.1178936333011458,0.8094617247486076,0
-1.0976221866467668,-1.1646133501668507,-0.7423409563205282,0.0983481549291671,0.9529685757340299,1
-0.00924322410406674,0.20325892818310767,-0.39217372580458176,-0.20457188999354609,-0.7448020909206114,1
1.3495611861869738,1.3268682996848584,1.2030325465458374,0.38765591793311716,0.7703675800638599,1
0.8387575626623319,0.887195067358086,2.486979058437638,-1.0275524697301557,0.4349242397253218,1
1.169277554354747,1.0663211990467716,0.34706820528463667,0.7892300307606498,0.49306542390841995,0
-0.7103462367849471,-0.6109507613109157,-0.042006495288636245,0.6140572758594884,-1.2629242446909494,0
1.7201442071754394,1.5222786251634237,0.7750503759152372,1.1796957715426408,0.6797711510363041,1
-1.2879215758030063,-1.4740130321745792,-1.0146932467218188,0.2910809314367902,0.15877050246381125,0
-0.23960564255635575,-0.07357236624486008,-0.8201558964351823,0.2627539116599183,0.6326124004668409,0
-1.1243308728441346,-1.0831923812174484,-0.19763637551794613,0.24798141452870257,0.7703675800638599,1
2.3544755043629024,1.5874154003229464,-0.39217372580458176,0.4980713189641841,0.1474547049435572,1
-0.393180588191216,-0.4481088234121111,0.4637906154566184,-1.1762733767173916,0.14366342795125064,1
-0.8138423957997444,-0.708655924050198,-0.9757857766644912,-0.23858789391117072,-0.49933633291618795,1
1.5699078473152503,1.3594366872646202,1.125217606431183,-1.0275524697301557,0.14745470494356025,0
0.5917022153366877,0.7569215170390432,0.424883145399291,0.1699766528066363,0.39699526929833345,1
-1.1310080443934756,-1.13204496258709,-0.6645260162058731,-0.2854134006085046,0.7703675800638599,0
0.10093010646007156,0.1381221530235851,-0.6256185461485457,0.5157457478075215,-2.61598784867562,1
0.5783478722380048,0.6917847418795205,0.5416055555712732,2.0247901704065763,-0.41872591473225323,0
0.7653086756195728,0.7894899046188039,0.7750503759152372,-1.2447699277396904,-1.1472594396150797,0
0.5750092864633334,0.4963744164009552,-0.6256185461485457,-0.20457188999354609,-0.7448020909206114,1
0.32461535336301955,0.6266479667199991,-0.4699886659192368,0.9771563591514916,0.5654518474649249,1
-0.12943231199221744,-0.2526984979335457,-0.19763637551794613,-0.23858789391117072,0.7246040079675915,1
0.08089859181204676,0.3009640909223898,0.30816073522730925,2.4479476383879084,0.8582179729568449,1
1.7401757218234641,1.4408576562140214,0.5805130256286006,1.13039947379733,-0.6345574934727997,1
0.154347478854805,0.4149534474515528,0.07471591488334527,-0.20457188999354609,-0.34234474222614314,0
-0.10940079734419264,0.12183795923370531,-0.4699886659192368,1.2444843707908686,0.5442318816676641,1
1.2093405836507973,1.1965947493658156,1.5531997770617825,-0.2647405753829878,0.4349242397253218,1
0.5349462571672837,0.5777953853503576,1.7477371273484192,-1.0275524697301557,-0.6521973598564984,0
-1.5917328812980545,-1.7671285203924272,-0.8590633664925097,0.7182307530094888,0.7642314675372405,0
1.6032937050619591,1.261731524525337,1.8255520674630739,-0.23858789391117072,0.7246040079675915,1
-1.7753550989049518,-1.9788230396608735,-1.1314156568938014,-1.3277232594373092,-1.745100051673511,1
1.6333409770339964,1.4734260437937834,0.9695877262018738,-0.23858789391117072,0.1714259149079248,0
-0.623543006643505,-0.692371730260317,-1.0146932467218188,0.14413687250849555,-0.9176296595655925,0
-0.6068500777701507,-0.8063610867894812,-0.8979708365498371,1.0062170823872607,0.4625699551627949,0
0.5115761567445876,0.8057740984086847,1.4364773668898012,1.3420602797021652,0.38895224416682367,1
-0.9640787556599323,-1.1483291563769704,-1.0925081868364739,1.0357124955864176,0.8980327851535344,0
0.284552324066969,0.2683957033426291,-0.5088961359765642,2.013572114019655,0.2671273993775455,1
2.3177510608415233,2.027088632649719,1.7477371273484192,-0.3021394149930495,0.9147871524479079,1
-1.2712286469296519,-1.4577288383846987,-1.0146932467218188,0.0983481549291671,-0.06995461701436291,0
0.9823167509731788,1.0988895866265322,-0.6645260162058731,-0.9907872105969641,0.19426505603315042,1
-1.3713862201697777,-1.4414446445948184,-0.4699886659192368,1.5886246829193649,0.547049539483793,0
-0.10940079734419264,0.17069054060334696,0.34706820528463667,1.4682941999040187,0.44732409824195263,0
-1.5583470235513457,-1.7182759390227862,-0.7423409563205282,-0.860803626136406,0.452147150934029,0
-1.0909450150974258,-1.1483291563769704,-1.2092305970084551,-0.2854134006085046,0.9337153069245697,0
1.3595769435109863,1.2942999121050978,-0.19763637551794613,-0.7950360508467857,0.7246040079675976,1
0.5115761567445876,0.5126586101908361,-0.8979708365498371,-0.8420663036097207,0.5472318584665374,1
-0.4833224041073286,-0.5132455985716325,-0.7423409563205282,0.9023004181866974,0.4008037776430566,0
-1.2378427891829433,-1.294886900485894,-0.6645260162058731,-0.18350541791655345,-1.0075292609272835,0
-1.3647090486204358,-1.4902972259644596,-0.9368783066071648,-1.2447699277396904,-2.877344211652754,0
0.9389151359024579,0.887195067358086,-0.042006495288636245,-0.3119351914445518,0.3892228840555374,1
-2.23274135003486,-2.516201434726928,-0.9757857766644912,1.3954033178849374,0.9138059393161111,1
-1.0108189565053247,-1.0343397998478072,-0.8590633664925097,2.5279240423434115,0.738624715397805,0
2.007262583797133,1.9619518574901962,2.3702566482656566,0.38765591793311716,0.60701985320315,1
0.06086707716402102,0.39866925366167305,2.17571929797902,-0.9907872105969641,-1.133362367310057,0
-0.43324361748726564,-0.5620981799412741,-0.8201558964351823,0.42184599416090746,0.7383598582433086,0
-0.43658220326193703,-0.04100397866509937,1.4753848369471287,-0.30944167859560884,0.5095337449462183,0
1.1325531108333677,0.9360476487277276,0.424883145399291,-1.0697714212619565,0.13573986933237103,0
0.5716707006886629,0.5452269977705968,-0.8201558964351823,-0.2647405753829878,0.7223937745070849,0
-0.5066925045300248,-0.48067721099187183,-0.4699886659192368,0.8356261477525915,-2.877344211652754,0
0.20776485124953936,0.07298537786406369,-1.2092305970084551,1.05080176949942,0.632612400466844,0
-0.8772755255184902,-1.0017714122680466,-1.1314156568938014,0.04137947050253027,0.6689517096464018,0
1.3963013870323653,1.1803105555759346,0.5026980855139458,-0.20457188999354609,0.32146896944546055,0
-0.8505668393211235,-0.8226452805793609,-0.7034334862632008,0.35809571237952,0.4430315341572034,1
0.4247729266031455,0.6755005480896408,0.15253085499800056,-0.2854134006085046,0.5188317371298173,1
-1.4314807641138532,-1.6042865824936232,-0.7812484263778549,-0.8814639298608375,0.8724540736502504,0
-0.7103462367849471,-0.7249401178400788,-0.8201558964351823,-1.2447699277396904,-1.1472594396150797,0
-0.14278665509090127,-0.2526984979335457,-1.0536007167791464,1.3435513894779476,0.0668767983585584,1
1.1926476547774432,1.1965947493658156,3.6152956901001296,-0.31593798731699807,0.9852826811170627,0
-1.1510395590415012,-1.180897543956731,-1.0925081868364739,1.7383643959993589,0.6505789051481488,1
0.8988521066064074,1.0988895866265322,0.424883145399291,0.395220741062326,0.3367832254686306,0
-0.4232278601632532,-0.5620981799412741,-0.0030990252313095523,0.2627539116599183,-1.2002707871751115,1
0.6751668597034592,0.8383424859884455,-0.2754513156326002,0.44358475508225265,-0.32669794625044457,0
1.3028209853415813,1.0500370052568906,2.486979058437638,-0.33559607702581123,-0.6683226601952835,1
-1.438157935663195,-1.6042865824936232,-0.8979708365498371,-1.2447699277396904,0.32146896944546055,0
0.6918597885768136,0.8220582921985645,1.4753848369471287,1.3969711556232807,0.9289856500149966,0
-1.177748245238868,-1.2297501253263727,-0.8201558964351823,0.20956497175801325,0.8335101880816776,0
1.6466953201326802,1.5385628189533047,1.7477371273484192,-1.1762733767173916,-0.8740755636124581,1
0.925560792803774,0.8383424859884455,1.7866445974057465,-0.22275850878342973,0.8754040619411921,1
-0.3264088726977987,-0.39925624204246946,-0.9368783066071648,-0.2941967980937935,0.3287122305858288,0
-1.8287724712996858,-1.8974020707114712,-0.8590633664925097,0.8356261477525915,-1.4086158025922135,1
-0.42656644593792464,-0.6272349551007955,0.7361429058579098,-1.2447699277396904,0.32146896944546055,1
0.22111919434822228,0.5452269977705968,0.8139578459725642,-0.20457188999354609,0.7239263181399304,0
-1.2311656176336014,-1.2786027066960137,-0.08091396534596365,-0.23858789391117072,-1.0525144259758576,1
-0.18618827016162232,-0.15499333519426242,-0.9757857766644912,2.474835934246082,-0.2872411341439597,0
-0.5834799773474545,-0.22013011035378385,-0.23654384557527283,-0.3119351914445476,0.3892228840555374,1
0.29790666716565284,0.21954312197298745,-0.4699886659192368,0.10819525343260657,0.7695891730161702,1
0.0208040478679714,0.1055537654438244,1.864459537520401,-1.1762733767173916,-0.09393326566432841,1
-0.5300626049527211,-0.5620981799412741,-0.4699886659192368,0.3414797805288508,-0.06176642333864539,0
0.8287418053383195,0.9197634549378478,2.1368118279216923,2.741723782901308,0.9276148565107306,1
1.5064747175965036,1.1803105555759346,-0.08091396534596365,-0.3373489142384843,0.9790089585165923,1
-0.717023408334289,-0.6598033426805563,-1.0146932467218188,-0.005010845370048383,0.7095439080645307,0
-0.34977897312049405,-0.3829720482525885,-0.7423409563205282,1.049258965149128,0.9146180196014363,0
-1.1911025883375508,-1.4414446445948184,-0.8201558964351823,0.7294425869331056,-9.234410477993777,1
-1.2745672327043225,-1.3437394818555357,-0.7812484263778549,-0.9584827191501256,0.5188317371298173,0
1.0791357384386333,0.9360476487277276,2.17571929797902,-0.018617360651740935,0.3930638156627969,1
1.4497187594270988,1.147742167996174,0.891772786087219,-1.0275524697301557,0.4349242397253172,0
0.3112610102643358,0.4149534474515528,0.34706820528463667,-0.22275850878342973,0.14366342795125064,0
-1.1477009732668297,-1.0994765750073288,-0.8590633664925097,0.7859899017363464,-1.0883201322262108,0
0.8220646337889777,0.7243531294592824,-0.8590633664925097,0.8997795272862102,0.7004250826311376,0
-1.3480161197470817,-1.5554340011239816,-0.9757857766644912,-0.8093779954254621,-1.4043743946612788,0
0.6751668597034592,0.8057740984086847,-0.7812484263778549,-0.2854134006085046,0.3554840102691091,1
1.0490884664665963,1.0011844238872503,1.3197549567178195,-1.2447699277396904,-2.877344211652754,1
-0.6903147221369222,-0.8226452805793609,-0.8979708365498371,-1.2447699277396904,-0.08098837924900924,0
0.12763879265743827,0.12183795923370531,-0.4699886659192368,-0.22275850878342973,0.8754040619411921,1
0.9355765501277864,0.7406373232491622,0.15253085499800056,2.8748106246668637,0.5743062938481823,1
-0.4232278601632532,-0.5458139861513932,-0.7423409563205282,-0.25247296303284644,-1.5046771466154296,0
0.6451195877314221,0.9849002300973693,0.30816073522730925,2.0378774413673537,0.9357305560451038,1
-0.37982624509253216,-0.17127752898414333,-0.2754513156326002,-0.23858789391117072,-0.7171333020638021,1
1.075797152663963,0.9849002300973693,-0.11982143540329107,-1.1762733767173916,-0.4598035826593022,1
0.06086707716402102,0.17069054060334696,-0.7812484263778549,-1.2447699277396904,-2.877344211652754,1
-0.5267240191780496,-0.6109507613109157,-0.8201558964351823,-0.9298733767164328,0.17497319354045682,0
-1.257874303830968,-1.294886900485894,-0.9757857766644912,0.4676768956300629,0.9404296154177786,0
-0.34644038734582355,-0.31783527309306714,-0.35326625574725506,-0.20457188999354609,0.32146896944546055,0
-1.8955441867931027,-2.060244008610276,-0.7034334862632008,-0.33946600492994944,0.7348980931359669,0
-1.0008031991813124,-1.180897543956731,-0.4699886659192368,0.8304952232754652,0.8949804217042461,0
1.9204593536556902,1.489710237583663,-0.39217372580458176,-0.2854134006085046,0.7703675800638599,1
-1.8755126721450779,-2.011391427240634,-0.8201558964351823,-0.2647405753829878,-0.03922841146868,0
-0.30971594382444445,-0.4643930172019909,-0.9757857766644912,0.7465500083808497,-0.9726516804448487,0
1.2761122991442146,1.1151737804164132,1.6310147171764373,3.2265100405134755,0.9726865876641326,1
0.37803272575775304,0.7569215170390432,0.7750503759152372,-1.1762733767173916,0.14366342795125064,0
1.1659389685800763,1.1640263617860538,2.3702566482656566,0.44858185290955255,0.7701683809811214,1
0.601717972660701,0.5777953853503576,-0.6645260162058731,-1.0697714212619565,0.4453224452511922,1
-1.2345042034082727,-1.5391498073341012,-1.325953007180438,0.7486170661073592,0.059031616934502734,1
-0.35645614466983594,-0.2852668855133064,-0.8979708365498371,-1.3277232594373092,-1.0075292609272835,0
1.616648048160642,1.4408576562140214,-0.31435878568992764,1.551233423142058,0.7870664182723968,0
-0.6335587639675174,-0.4643930172019909,-0.042006495288636245,-1.1762733767173916,0.5095337449462183,0
-1.214472688760247,-1.2786027066960137,-0.8590633664925097,1.0357124955864176,0.8980327851535389,0
0.8554504915356863,0.773205710828923,-0.6645260162058731,-0.2854134006085046,0.7703675800638599,1
0.7619700898449023,0.6917847418795205,1.3197549567178195,-0.22275850878342973,-0.09393326566432841,0
1.4029785585817072,1.3105841058949785,-0.2754513156326002,-1.0697714212619565,0.4453224452511922,1
-1.2979373331270185,-1.6368549700733839,-1.3648604772377644,1.6681796704696403,0.6554878569881009,1
-0.6268815924181755,-0.3829720482525885,-0.31435878568992764,-1.1762733767173916,-0.825673899654273,1
1.0390727091425838,1.2128789431556954,1.864459537520401,-0.2647405753829878,0.909076890919322,0
-0.03595191030143346,0.3335324785021516,1.2030325465458374,0.20594401440912768,0.6550396396566115,0
-0.10272362579485073,-0.39925624204246946,-1.0536007167791464,-0.30935500910046043,-0.7296198625755886,0
-1.7953866135529772,-1.929970458291232,-0.9368783066071648,0.29108093143678604,0.9051124296105276,0
0.5716707006886629,0.9360476487277276,0.8528653160298916,0.9023004181866974,0.6616209418654243,1
1.4463801736524282,1.1314579742062931,-0.08091396534596365,-1.1762733767173916,-1.8434128912179801,0
-0.48999957565667046,-0.39925624204246946,-0.5867110760912183,1.0848001585550322,-0.17808551261357292,1
-0.6469131070662012,-0.4643930172019909,-0.35326625574725506,0.14165191546536832,0.6616209418654243,0
-0.4098735170645703,-0.2689826917234255,0.9306802561445464,-1.2447699277396904,-0.7448020909206114,1
0.6851826170274726,0.4963744164009552,-0.9368783066071648,1.2316402389887904,0.906417821036751,1
-1.1042993581961087,-1.0343397998478072,-0.11982143540329107,-0.2941967980937935,-1.1937826516380645,0
-1.5616856093260167,-1.8485494893418295,-0.8590633664925097,0.3414797805288475,0.5654518474649279,0
-1.30127591890169,-1.294886900485894,-0.6256185461485457,1.5556864448741288,0.7695891730161702,0
1.3295296715389482,1.1640263617860538,-0.8590633664925097,-0.2647405753829878,0.6216073561375575,1
-1.3213074335497148,-1.6694233576531445,-1.0925081868364739,-0.22275850878342973,0.5095337449462183,1
1.092490081537317,1.0988895866265322,0.4637906154566184,0.641579676489415,0.1714259149079248,1
0.9889939225225208,0.9686160363074884,-0.39217372580458176,0.3000805015968256,0.09882692519205598,1
0.9889939225225208,0.8220582921985645,0.891772786087219,-0.20457188999354609,0.7239263181399272,0
-0.6802989648129099,-0.8063610867894812,-0.6256185461485457,-0.9584827191501256,0.9337153069245697,0
1.169277554354747,1.147742167996174,-0.23654384557527283,-0.9584827191501256,0.10394816733506354,1
0.7719858471689147,0.9360476487277276,0.9306802561445464,-0.23858789391117072,0.3892228840555374,1
-0.9173385548145407,-0.8552136681591217,-0.6256185461485457,0.718230753009492,-0.3438089785596575,0
-1.0475434000267039,-0.9040662495287634,-0.4310811958619091,1.3234520447415468,-0.046371054239687806,0
1.523167646469858,1.2291631369455762,-0.31435878568992764,1.709946964417379,0.9276148565107306,1
1.7334985502741223,1.5874154003229464,1.6310147171764373,0.169976652806633,0.10932236304289847,1
0.08089859181204676,-0.089856560034741,-0.9757857766644912,2.080711085312515,0.6868825987341605,0
0.5583163575899791,0.9197634549378478,0.30816073522730925,0.08861453347215315,0.5295835020685865,1
0.8688048346343692,0.903479261147967,-0.08091396534596365,1.4409310979919314,0.8094617247486076,1
1.6834197636540593,1.392005074844381,0.11362338494067267,-1.0697714212619565,-1.8552149766527195,1
1.6433567343580087,1.4408576562140214,1.2808474866604922,-0.25247296303284233,-1.8552149766527195,1
-0.8906298686171741,-0.936634637108524,-0.8201558964351823,1.1524527601726564,0.47858418301969613,0
0.3145995960390062,0.4800902226110754,-0.23654384557527283,-0.23858789391117072,0.3892228840555374,0
-0.13277089776688886,-0.6109507613109157,-1.1314156568938014,-1.3277232594373092,0.17721636170168514,1
1.1726161401294173,1.0500370052568906,0.3859756753419636,0.09020143605119225,0.18929239797371442,1
-1.1109765297454506,-1.115760768797209,-1.0146932467218188,-0.2524729630328498,-1.5046771466154296,0
0.2878909098416395,0.6266479667199991,0.3859756753419636,2.277945526451376,0.40638368980368256,0
0.8754820061837111,0.6103637729301193,1.59210724711911,-0.20457188999354609,0.7239263181399272,1
0.1343159642067802,0.21954312197298745,-0.8590633664925097,-0.23858789391117072,0.3892228840555374,0
0.04083556251599621,-0.008435591085338659,-0.6645260162058731,-1.1187554643117514,0.05384176014348333,0
-0.0659991822734716,0.1055537654438244,-0.08091396534596365,-1.1187554643117514,-1.0525144259758576,0
1.292805228017569,1.2128789431556954,2.2535342380936747,-1.3277232594373092,0.6243911935844265,0
-0.6636060359395556,-0.6109507613109157,0.07471591488334527,-1.2447699277396904,0.3214689694454575,1
0.5115761567445876,0.7406373232491622,0.30816073522730925,-1.1762733767173916,-0.45980358265929916,0
-1.127669458618805,-1.360023675645416,-0.7812484263778549,-0.9584827191501256,0.7703675800638599,1
-0.10272362579485073,0.15440634681346602,-0.31435878568992764,-1.0697714212619565,0.4453224452511922,0
-0.8939684543918446,-0.8552136681591217,-0.5088961359765642,1.6322571073084908,-0.06473505695850698,0
-1.3046145046763606,-1.4577288383846987,-0.8590633664925097,0.3000805015968256,0.7695891730161702,0
0.9823167509731788,0.9686160363074884,-0.5088961359765642,-1.1762733767173916,-1.1915442166492451,1
0.9389151359024579,0.8546266797783253,2.3702566482656566,1.3646644926061446,0.17768885386970623,0
0.9188836212544321,0.8709108735682062,1.7866445974057465,-1.1762733767173916,-0.825673899654273,1
-1.3380003624230692,-1.2297501253263727,-0.1587289054606187,0.14413687250849555,0.12319576813409401,0
-1.4548508645365494,-1.5391498073341012,-0.9757857766644912,-0.18350541791655345,-0.5603544290445391,1
-0.11273938311886313,0.12183795923370531,0.424883145399291,-1.3277232594373092,0.17721636170168514,0
0.4748517132232084,0.2683957033426291,-0.9757857766644912,-1.3277232594373092,-1.0075292609272835,1
0.28121373829229857,0.4475218350313147,2.1368118279216923,-1.0697714212619565,0.6463658013874533,1
1.5198290606951874,1.2128789431556954,0.9695877262018738,-0.22275850878342643,-0.09393326566432841,1
-0.012581809878737232,-0.23641430414366477,-0.8590633664925097,-1.0697714212619565,0.9559483773062729,0
1.4096557301310493,1.0826053928366526,-0.8201558964351823,1.9147261496294508,0.5266431674193992,1
-0.940708655237237,-1.1646133501668507,-1.0536007167791464,0.5780253589781154,0.4444579631491869,0
0.05418990561468003,0.2683957033426291,-0.7034334862632008,-0.37042455119893697,0.9852826811170627,1
0.2878909098416395,0.5615111915604778,-0.08091396534596365,0.3414797805288475,0.4430315341572034,1
-1.6217801532700922,-1.8159811017620688,-0.7423409563205282,-0.23858789391117072,-1.0525144259758608,0
0.8854977635077235,1.01746861767713,0.15253085499800056,1.0769231563569392,0.738624715397805,0
-2.0691506470759875,-2.2068017527192,-0.8201558964351823,0.2910809314367902,0.2883323798447051,1
0.7552929182955603,0.5940795791402385,2.097904357864365,-0.9907872105969641,0.9051124296105307,1
1.4664116883004532,1.4245734624241417,1.9422744776350558,-0.2854134006085046,-0.39912351853301986,1
-1.171071073689526,-1.066908187427568,-0.23654384557527283,-0.20457188999354609,-1.4086158025922166,0
-0.33976321579648167,-0.41554043583234923,-0.7812484263778549,-0.9298733767164328,0.8335101880816745,0
-1.2445199607322852,-1.2786027066960137,-0.5478036060338917,0.8763261247446167,0.4798917357586839,0
1.299482399566911,1.1640263617860538,0.191438325055327,0.3000805015968256,0.7695891730161702,1
1.1893090690027717,1.1314579742062931,0.7750503759152372,0.061668740490195294,0.6721402425050633,1
-0.34977897312049405,-0.6435191488906765,-1.1314156568938014,0.9794186281576176,0.8630796862220448,1
-1.7753550989049518,-1.8485494893418295,-0.2754513156326002,-1.2447699277396904,0.32146896944546055,1
-0.7704407807290224,-0.5946665675210349,0.15253085499800056,0.3455890855242635,-0.017516092709522552,0
0.18773333660151365,0.15440634681346602,-0.8979708365498371,-0.8249953832983808,0.6987287746036092,0
0.4514816128005122,0.6103637729301193,1.2808474866604922,1.233959681095079,0.8144779566835685,0
0.7586315040702308,0.6266479667199991,-0.7034334862632008,-0.9907872105969641,0.4625699551627949,0
1.342884014637632,1.0988895866265322,1.9422744776350558,-0.22275850878342973,-0.825673899654273,1
0.2545050520949309,0.4800902226110754,1.5142923070044552,-0.3106407336410819,-1.0075292609272835,0
-0.21623554213366045,0.007848602704542263,0.11362338494067267,-0.30944167859560884,-0.4598035826593022,0
0.37803272575775304,0.5126586101908361,1.5142923070044552,2.2054426573043306,0.9397677771850753,0
-0.8705983539691483,-1.13204496258709,-0.5478036060338917,0.33235162889085934,0.6463658013874533,1
-1.3914177348178025,-1.0994765750073288,1.4364773668898012,-0.3021394149930495,0.9147871524479079,1
-0.23960564255635575,-0.334119466882948,-0.9368783066071648,0.024895704880968303,0.7643245106531793,0
1.0958286673119877,1.1151737804164132,-0.5478036060338917,-0.9907872105969641,0.020027480715057576,1
0.9355765501277864,1.0011844238872503,1.2808474866604922,1.167188761541999,1.0599851318796516,1
-0.4966767472060124,-0.31783527309306714,-0.5088961359765642,1.1546212422544515,0.4625699551627949,0
1.1492460397067221,1.4245734624241417,2.60370146860962,0.8578129225200739,-0.6908198928623227,1
0.9923325082971913,0.7569215170390432,1.125217606431183,1.5354657209397191,0.925951428520529,0
0.9489308932264703,0.9849002300973693,2.3313491782083298,-0.9584827191501256,0.3554840102691091,1
0.9288993785784454,0.9686160363074884,0.34706820528463667,-0.2854134006085046,0.10394816733506354,1
-0.853905425095794,-0.7737926992097194,-0.6645260162058731,-1.2447699277396904,0.32146896944546055,0
-0.4098735170645703,-0.5458139861513932,-0.5867110760912183,-0.32750936524587676,0.6987287746036092,1
0.35466262533505677,0.28467989713251,-0.8201558964351823,-0.2524729630328498,0.13573986933237103,0
1.1258759392840259,1.0663211990467716,-0.8201558964351823,1.4460503346768676,0.9337153069245697,1
0.428111512377816,0.7243531294592824,-0.0030990252313095523,1.8995222713166493,0.9536656752249013,0
0.09759152068540107,0.38238505987179217,1.0084951962592008,1.4337858208812948,0.7707461943128033,0
0.20108767970019745,0.39866925366167305,0.30816073522730925,0.13173392006168694,0.7888958390737999,0
-1.0542205715760458,-1.0343397998478072,-1.1314156568938014,-1.1187554643117514,0.7246040079675915,0
-1.8554811574970524,-1.8811178769215908,-0.7812484263778549,2.5640989123316356,0.7461936080401117,0
-0.9841102703079581,-1.115760768797209,-0.7423409563205282,-0.25247296303284233,0.13573986933237103,0
-2.129245191020063,-2.1905175589293195,-0.6645260162058731,-0.18350541791655345,-1.745100051673511,1
1.3963013870323653,1.2780157183152179,0.11362338494067267,0.5996348938526423,0.3554840102691091,1
1.105844424636001,1.1803105555759346,3.2651284595841847,0.2910809314367902,0.6368075304808831,0
1.3128367426655938,1.2291631369455762,1.8255520674630739,-0.20457188999354609,-1.1472594396150797,1
0.32795393913769005,0.5452269977705968,0.15253085499800056,1.228242396987361,-1.8110731512866818,1
-0.6335587639675174,-0.708655924050198,-0.5478036060338917,0.04412597555671655,0.9058647650801894,0
-0.7370549229823138,-0.8389294743692419,-0.8590633664925097,0.7859899017363464,-0.1780447086624966,0
-1.0575591573507173,-1.0506239936376875,-0.7034334862632008,-0.9907872105969641,0.4270754015934603,0
0.8721434204090406,1.0500370052568906,0.07471591488334527,-0.23858789391117072,-2.991585206645426,0
-0.5868185631221259,-0.48067721099187183,-0.7034334862632008,1.6761345580243903,0.9596784968849016,0
-0.7938108811517186,-0.6272349551007955,-0.39217372580458176,-0.25247296303284233,0.4453224452511922,0
1.1893090690027717,1.01746861767713,0.9695877262018738,0.3414797805288475,-0.4209263535254676,1
-1.3546932912964236,-1.4088762570150577,-0.7812484263778549,-0.25247296303284644,0.9559483773062729,0
1.5966165335126172,1.2780157183152179,1.0084951962592008,-0.23858789391117072,-0.49933633291618795,1
1.4230100732297322,1.1965947493658156,0.6972354358005824,0.9210507330703235,-1.0988190752330682,1
-0.8205195673490854,-0.6272349551007955,0.6972354358005824,0.9607124236042065,-1.0075292609272835,0
-1.0174961280546666,-1.1971817377466114,-0.7812484263778549,0.7161395045265446,1.0100100541645307,0
-1.7152605549608766,-1.8485494893418295,-0.7812484263778549,-0.31593798731699807,0.8546044996284943,0
-1.2712286469296519,-1.5717181949138619,-1.1703231269511278,-1.1762733767173916,0.5095337449462183,1
1.6734040063300468,1.7014047568521093,2.0200894177497104,0.7760325865648315,0.9567366637002372,1
-0.44659796058594947,-0.41554043583234923,-0.5867110760912183,-0.35012236606643293,0.8175271214113987,1
-1.4648666218605617,-1.5717181949138619,-0.6256185461485457,-1.0697714212619565,-0.994051214560352,0
-0.4933381614313419,-0.5946665675210349,-0.5088961359765642,-0.9907872105969641,0.7308748542924378,0
-1.344677533972411,-1.4740130321745792,-0.8979708365498371,0.08402455546660118,-0.7448020909206114,1
-0.8305353246730988,-0.4643930172019909,0.5026980855139458,-1.2447699277396904,-0.7448020909206099,1
-0.8038266384757311,-0.9529188308984049,-1.0536007167791464,-1.0697714212619565,-0.7930078584240925,0
1.1926476547774432,1.2291631369455762,0.424883145399291,-0.2524729630328498,-2.4743801284903633,0
0.471513127448537,0.6429321605098801,0.15253085499800056,-0.9907872105969641,-2.6491244382763752,0
0.7319228178728642,0.887195067358086,-0.4310811958619091,2.6479904172000546,0.9473052968961067,0
-0.43324361748726564,-0.2689826917234255,-0.7423409563205282,-0.9298733767164328,0.4430315341572034,1
1.185970483228101,0.9849002300973693,1.1641250764885103,0.20956497175801325,-1.5529425818248868,0
0.9389151359024579,1.01746861767713,2.3313491782083298,2.829868689876598,1.0153039226881575,0
-0.19954261326030612,-0.17127752898414333,-1.0536007167791464,0.28340119204187203,1.032800019912085,1
-0.8672597681944778,-0.9692030246882848,-0.7034334862632008,-0.3373489142384843,0.4444579631491869,1
0.23447353744690608,0.528942803980717,0.15253085499800056,-1.1762733767173916,0.5095337449462183,0
0.6651511023794469,0.8220582921985645,-0.4699886659192368,-0.006857879377006614,-1.5046771466154296,1
0.6417810019567507,0.6917847418795205,-0.11982143540329107,-0.9907872105969641,-1.2629242446909523,0
0.6918597885768136,0.7243531294592824,-0.7034334862632008,-0.2854134006085046,-1.0655429312618148,1
-0.8372124962224397,-0.936634637108524,-0.5088961359765642,0.7737932903218189,0.39890532058002104,0
-2.3295603375003147,-2.402212078197765,-0.6256185461485457,-0.2756510596464944,-0.9946193455613033,0
-0.6368973497421888,-0.578382373731154,-0.7423409563205282,-1.3277232594373092,-1.0075292609272835,0
1.322852499989606,1.0663211990467716,0.658327965743255,-0.3021394149930495,0.5164229624336806,1
-0.022597567202750562,-0.04100397866509937,-0.35326625574725506,-1.1762733767173916,0.5095337449462183,0
-1.1677324879148556,-1.311171094275775,-0.8590633664925097,0.34558908552426765,0.60701985320315,0
-0.9674173414346038,-0.9529188308984049,-0.1587289054606187,-1.1762733767173916,0.5095337449462183,0
0.7285842320981937,0.8383424859884455,-0.4699886659192368,1.0364581445432128,0.8980327851535389,1
-0.2763300860777358,-0.7412243116299586,-1.4815828874097468,0.22892765150241084,0.8546044996284957,0
-0.012581809878737232,0.20325892818310767,-0.1587289054606187,1.4809181290033009,-1.5529425818248868,1
-0.4198892743885827,-0.23641430414366477,-0.2754513156326002,-0.20457188999354609,0.32146896944546055,0
1.4563959309764407,1.0663211990467716,-0.8979708365498371,-1.2447699277396904,0.3214689694454575,1
-2.169308220316113,-2.402212078197765,-1.248138067065783,-0.4126114975427799,-2.2135304999811516,1
-0.4933381614313419,-0.3829720482525885,2.097904357864365,-1.1762733767173916,0.5095337449462183,1
-0.6869761363622517,-0.9040662495287634,-1.0146932467218188,-0.7818194154714104,0.8132823683978458,0
-1.5282997515793082,-1.6531391638632642,-0.5478036060338917,-1.0275524697301557,0.909076890919322,0
-0.20288119903497662,-0.089856560034741,-0.5867110760912183,-0.2647405753829878,0.4349242397253218,1
0.30458383871499384,0.43123764124143377,1.3197549567178195,-1.3277232594373092,-2.929845674302478,1
0.7319228178728642,0.9849002300973693,0.30816073522730925,0.8348628324203001,1.0100100541645307,1
0.7052141316754974,0.31724828471227073,-0.7423409563205282,-0.30935500910046043,0.7348980931359714,1
0.4648359558991951,0.6266479667199991,-0.5088961359765642,-1.1762733767173916,0.14366342795125064,0
0.29122949561631095,-0.15499333519426242,-1.248138067065783,0.8763261247446167,0.6569316214967706,0
0.7653086756195728,0.7406373232491622,0.4637906154566184,-1.1187554643117514,0.3892228840555374,1
1.3796084581590111,1.3105841058949785,1.7866445974057465,-1.2447699277396904,0.7239263181399304,1
1.933813696754374,1.7176889506419892,1.4753848369471287,-1.1187554643117514,0.7246040079675915,1
-0.2896844291764187,-0.23641430414366477,-0.39217372580458176,-0.5480873894285843,-5.06809854997916,0
1.9905696549237788,1.505994431373544,-0.5867110760912183,0.7045388148057053,0.631002696778455,1
1.342884014637632,1.147742167996174,0.5805130256286006,-0.2647405753829878,-1.2271364294200244,1
-0.6435745212915298,-0.5458139861513932,-0.4310811958619091,0.14413687250849555,0.9367547932449671,0
0.1409931357561221,0.21954312197298745,-0.5867110760912183,0.12033822236981728,0.7525263191783422,1
-0.6135272493194927,-0.39925624204246946,0.30816073522730925,-1.2447699277396904,-0.7448020909206114,0
-0.5467555338260753,-0.089856560034741,0.8139578459725642,-0.2756510596464944,-0.820381770243215,0
-1.2244884460842596,-1.4088762570150577,-1.0925081868364739,-0.860803626136406,-2.147248405068772,0
-0.3865034166418741,-0.4643930172019909,-0.8590633664925097,1.355808377167664,0.5867918813367354,1
-0.7136848225596185,-0.8714978619490026,-1.0925081868364739,-1.3277232594373092,-0.5603544290445391,0
2.1608375294319924,1.7665415320116309,1.5142923070044552,-0.23858789391117072,0.1714259149079248,1
0.9889939225225208,1.01746861767713,1.0863101363738557,-1.2447699277396904,0.7239263181399272,1
0.0441741482906667,0.0567011840741839,-0.5867110760912183,0.5017525256904775,-0.15191430388399205,1
2.174191872530676,1.6688363692723487,1.5142923070044552,0.12033822236981728,0.7525263191783422,1
-0.34644038734582355,-0.6109507613109157,-0.8979708365498371,0.9737934258419066,-1.6056925190355276,0
1.1325531108333677,1.2780157183152179,2.9149612290682394,0.8597827809924184,0.795630137154509,0
-1.3380003624230692,-1.4902972259644596,-0.8979708365498371,0.4980713189641841,0.4349242397253172,0
-0.46662947523397424,-0.6435191488906765,-0.7812484263778549,1.3034423075647203,-0.4348060403040522,0
0.09091434913605916,0.28467989713251,-0.042006495288636245,-1.1187554643117514,-0.834717456828245,0
1.5999551192872876,1.505994431373544,1.8255520674630739,0.22892765150241084,0.6267549101042584,0
0.9389151359024579,1.01746861767713,0.07471591488334527,-0.04351819124977294,0.7956301371545059,1
0.8721434204090406,1.0826053928366526,1.0084951962592008,-0.23858789391117072,-1.0525144259758576,1
1.2193563409748098,1.147742167996174,0.2692532651699818,1.2882484252869233,-3.1979620218403886,1
0.7686472613942432,0.6755005480896408,-1.0925081868364739,-1.2447699277396904,0.3214689694454575,0
-0.897307040166516,-1.13204496258709,-1.0925081868364739,1.3869372356273126,0.7580331695006645,1
-0.0059046383293962475,0.21954312197298745,0.7750503759152372,-1.1187554643117514,-0.16395520900412927,0
1.2727737133695431,1.0500370052568906,0.8139578459725642,0.3000805015968256,0.4008037776430535,0
-0.3764876593178617,-0.008435591085338659,0.23034579511265443,-1.2447699277396904,0.32146896944546055,0
-0.45327513213529136,-0.708655924050198,-0.6256185461485457,-0.23858789391117072,0.3892228840555374,0
0.1309773784321097,0.38238505987179217,1.6310147171764373,-1.1762733767173916,0.8754040619411875,1
0.9522694790011408,0.9197634549378478,1.4753848369471287,-1.3277232594373092,-1.0075292609272835,1
-1.678536111439497,-1.8485494893418295,-1.248138067065783,-0.25247296303284644,-0.994051214560352,0
-0.23960564255635575,0.12183795923370531,1.3975698968324735,-1.3277232594373092,0.6243911935844295,1
0.12763879265743827,0.5126586101908361,0.891772786087219,0.41207297348675936,0.7642314675372405,0
-1.4481736929872076,-1.6368549700733839,-0.9757857766644912,0.28340119204187203,1.0328000199120821,0
0.5716707006886629,0.5452269977705968,-0.8201558964351823,-1.0275524697301557,0.4349242397253172,0
0.12430020688276779,-0.008435591085338659,-0.8979708365498371,-1.0275524697301557,0.6216073561375575,0
-0.3865034166418741,-0.089856560034741,0.424883145399291,-0.9907872105969641,-0.42251499373267365,1
-0.4799838183326581,-0.2526984979335457,0.07471591488334527,-0.23858789391117072,-0.16395520900412927,0
1.6133094623859714,1.636267981692588,2.564793998552293,-1.2447699277396904,-0.7448020909206114,1
-0.045967667625445865,-0.15499333519426242,-1.3648604772377644,-0.23858789391117072,0.3892228840555374,1
0.6417810019567507,0.7569215170390432,0.15253085499800056,-0.30935500910046043,0.7348980931359714,1
0.6150723157593839,0.4963744164009552,-0.9368783066071648,-1.1762733767173916,0.5095337449462183,1
1.3528997719616442,1.0500370052568906,2.0200894177497104,-1.0275524697301557,-1.2271364294200244,0
-0.4065349312898989,-0.3829720482525885,-0.35326625574725506,0.3000805015968256,0.7695891730161702,0
0.6484581735060926,0.8220582921985645,-0.11982143540329107,0.38765591793311716,0.3554840102691091,1
-1.1844254167882098,-1.246034319116253,-0.8201558964351823,-0.9298733767164328,-0.32982476395539506,1
0.608395144210042,0.9523318425176085,-0.11982143540329107,0.7307563591505362,0.5095337449462183,0
0.5917022153366877,0.6917847418795205,1.2419400166031647,-1.3277232594373092,-1.0075292609272835,0
1.4330258305537444,1.0826053928366526,1.0084951962592008,-0.3021394149930495,0.5164229624336806,0
-1.4147878352404988,-1.3925920632251767,-0.5478036060338917,-0.33946600492994944,0.2832367627449472,1
-0.2796686718524063,-0.5132455985716325,-1.2092305970084551,0.501956383024787,0.13573986933237103,0
-1.1510395590415012,-1.0343397998478072,-0.2754513156326002,-0.20457188999354609,-1.1472594396150797,0
2.3043967177428395,1.6851205630622286,-0.4699886659192368,-1.0275524697301557,0.4349242397253172,1
0.30458383871499384,0.2683957033426291,0.891772786087219,0.7335660580381197,0.9422246998738073,1
0.651796759280764,0.9686160363074884,0.5805130256286006,-1.1187554643117514,0.3892228840555374,0
-0.3297474584724692,-0.31783527309306714,-0.8201558964351823,0.6103004549242572,0.3555855019453626,1
-0.05264483917478777,0.21954312197298745,0.191438325055327,0.4394850913039803,-0.8558763238125527,0
0.08757576336138867,0.07298537786406369,-0.8590633664925097,2.7418383177540058,0.8406631407395346,1
-1.1343466301681469,-1.2786027066960137,-0.6645260162058731,-0.2524729630328498,-1.1950945706966085,0
0.8354189768876605,0.9360476487277276,2.5258865284949663,-1.1187554643117514,-0.16395520900413388,1
-1.4581894503112198,-1.5065814197543403,-0.6256185461485457,-0.8814639298608375,0.2832367627449472,0
0.2745365667429566,0.4963744164009552,0.03580844482601786,-0.23858789391117072,-0.16395520900412927,1
-1.2812444042536644,-1.3437394818555357,-0.4699886659192368,-1.0275524697301557,0.1474547049435572,0
0.8487733199863443,1.0663211990467716,1.125217606431183,3.0656722026683623,0.9210027179411152,1
-0.7837951238277062,-1.180897543956731,-1.0925081868364739,-0.30935500910046043,0.42079274325922766,1
1.4129943159057197,1.1965947493658156,-0.5088961359765642,-0.22275850878342973,-0.4598035826593022,1
0.11762303533342587,0.20325892818310767,-0.6645260162058731,-1.2447699277396904,-1.1472594396150797,1
0.3112610102643358,0.5452269977705968,0.30816073522730925,3.1404555505784995,0.9275067023590139,1
0.5516391860406381,0.6103637729301193,2.214626768036348,-1.1187554643117514,1.0599851318796516,0
-0.6202044208688345,-0.2852668855133064,-0.19763637551794613,-0.9907872105969641,-0.4225149937326767,1
-1.1610553163655135,-1.115760768797209,-0.19763637551794613,-0.22275850878342973,-1.4291409102648212,0
0.49488322787123323,0.4475218350313147,2.486979058437638,1.6161392224547704,0.12816562075126897,1
1.2093405836507973,1.245447330735456,1.125217606431183,-0.23858789391117072,0.3892228840555374,0
-1.0508819858013754,-1.1971817377466114,-0.7034334862632008,0.14413687250849555,-0.3732483201982707,1
0.4748517132232084,0.36610086608191234,-0.7034334862632008,2.2867768157027726,0.5053724610819298,1
-1.251197132281627,-1.2786027066960137,-1.0536007167791464,-0.9298733767164328,-1.3475216886834396,1
-0.5033539187553543,-0.2526984979335457,0.5416055555712732,-0.30935500910046043,-0.7413611849147259,1
0.9723009936491664,1.01746861767713,2.058996887807038,-0.23858789391117072,-0.49933633291618795,1
-0.4132121028392408,-0.41554043583234923,-0.4699886659192368,-0.3021394149930495,0.29283554649231375,1
-0.8305353246730988,-0.6598033426805563,-0.23654384557527283,-1.3277232594373092,-1.0075292609272835,0
0.5483006002659667,0.6755005480896408,-0.4699886659192368,-1.0697714212619565,0.6463658013874533,1
0.471513127448537,0.5777953853503576,-0.8979708365498371,-0.8420663036097207,0.8567756656664496,1
0.745277160971548,0.8709108735682062,2.17571929797902,0.7232657678167,-3.3770205061852225,0
0.5783478722380048,0.6755005480896408,1.5142923070044552,-0.2647405753829878,0.4349242397253218,1
0.4781902989978789,0.6755005480896408,1.0084951962592008,2.3368441779662534,0.9199867391360039,0
-1.1911025883375508,-1.2134659315364924,-0.7812484263778549,-0.2854134006085046,0.5188317371298173,0
0.21444202279888128,0.6592163542997599,1.0863101363738557,-0.20457188999354609,0.3214689694454575,1
1.399639972807036,1.392005074844381,0.5805130256286006,0.22892765150241084,-1.0809773447027002,1
-1.0608977431253876,-1.180897543956731,-1.248138067065783,0.641579676489415,0.3892228840555374,0
-2.3562690236976813,-2.467348853357287,-0.7423409563205282,0.7737932903218189,0.8546044996284957,1
1.0490884664665963,1.7339731444318702,5.443946782794513,-1.1187554643117514,0.3892228840555374,1
-0.21289695635898903,-0.04100397866509937,0.658327965743255,0.44858185290955255,0.632612400466844,0
0.6184109015340553,0.4638060288211945,1.6699221872337644,-1.1187554643117514,0.7246040079675915,1
0.41141858350446164,0.6266479667199991,1.3197549567178195,-1.2447699277396904,0.32146896944546055,1
-0.42990503171259514,-0.2852668855133064,-0.1587289054606187,-1.3277232594373092,0.17721636170168514,0
-0.23292847100701475,-0.1387091414043815,-0.9368783066071648,-1.1762733767173916,-1.8434128912179801,0
1.3829470439336815,1.4082892686342607,0.9695877262018738,-0.32750936524587676,-0.03927173054623701,1
-1.3213074335497148,-1.4414446445948184,-0.7423409563205282,1.423361586594589,0.263740068320855,1
-1.451512278761878,-1.5228656135442207,-0.1587289054606187,-1.1762733767173916,0.5095337449462183,0
1.5064747175965036,1.261731524525337,2.214626768036348,-0.2647405753829878,0.14745470494355567,1
0.8521119057610148,1.0500370052568906,2.7982388188962566,-1.0697714212619565,-0.1738427065864486,1
0.2244577801228937,0.04041699028430298,-0.8590633664925097,0.38765591793311716,-0.7258189722544396,0
-0.3597947304445074,-0.41554043583234923,-0.8201558964351823,0.8375937055916871,0.06099263238185815,0
-1.5616856093260167,-1.3437394818555357,0.891772786087219,-0.2854134006085046,0.3554840102691091,0
-0.7837951238277062,-0.5458139861513932,-0.1587289054606187,-1.3277232594373092,-1.0075292609272835,0
1.1726161401294173,1.0988895866265322,1.4364773668898012,-0.20457188999354609,0.7239263181399272,1
-0.623543006643505,-0.3829720482525885,0.891772786087219,-1.2447699277396904,0.32146896944546055,1
-2.0724892328506583,-2.3696436906180045,-1.2870455371231102,2.266358221103083,0.9188730114386193,1
-0.3965191739658865,-0.43182462962223017,-0.7812484263778549,-0.18350541791655345,-2.639449715438995,0
-2.7034819442634506,-2.8907378918941786,-1.0925081868364739,0.718230753009492,0.7642314675372405,1
-1.2445199607322852,-1.425160450804938,-0.8979708365498371,-1.0697714212619565,-0.1738427065864486,0
1.8203017804155643,1.392005074844381,-0.1587289054606187,-0.2647405753829878,-0.03922841146868,0
1.4630731025257826,1.2780157183152179,1.4364773668898012,-1.0697714212619565,0.3367832254686306,0
-0.20955837058431853,-0.12242494761450172,-0.6645260162058731,0.10126792501114029,-0.02200574131751142,1
0.8487733199863443,0.7894899046188039,1.9422744776350558,0.889047165871412,0.8580220753472149,0
-0.5667870484741001,-0.5946665675210349,-0.7423409563205282,-1.0697714212619565,0.6463658013874533,0
1.523167646469858,1.3757208810545,-1.2870455371231102,0.4394850913039803,0.020027480715057576,1
-0.5033539187553543,-0.22013011035378385,0.7750503759152372,-0.2647405753829878,0.909076890919322,1
0.4781902989978789,0.1381221530235851,-0.1587289054606187,-0.9907872105969641,0.19426505603314737,0
-0.5901571488967964,-0.43182462962223017,0.03580844482601786,0.0983481549291671,0.4913164894422709,0
-0.37982624509253216,-0.6435191488906765,-1.1314156568938014,-0.9907872105969641,0.15877050246381125,0
-0.6335587639675174,-0.5620981799412741,-0.7423409563205282,0.3414797805288508,-0.5352456570968452,1
0.3980642404057778,0.6592163542997599,-0.4310811958619091,-1.0275524697301557,0.4349242397253172,0
1.7769001653448433,1.4571418500039024,-0.39217372580458176,-0.23858789391117072,-2.2764547668596418,1
-0.5634484626994296,-0.39925624204246946,-0.35326625574725506,2.089381951831652,0.4276128507934923,1
0.4614973701245246,0.5777953853503576,-0.4699886659192368,-1.3277232594373092,0.6243911935844295,1
1.4230100732297322,1.2942999121050978,1.2030325465458374,-1.0697714212619565,0.6463658013874533,0
-0.9273543121385532,-0.6435191488906765,0.23034579511265443,2.035421208734813,0.607929095058514,1
-1.3914177348178025,-1.6205707762835035,-1.4037679472950917,-0.9584827191501256,-0.5624712453937313,1
-1.034189056928021,-0.7249401178400788,-0.0030990252313095523,-1.2447699277396904,0.7239263181399304,1
1.256080784496189,1.2291631369455762,0.5805130256286006,0.4394850913039803,0.7308748542924409,1
0.6351038304074097,0.7243531294592824,1.7866445974057465,-1.3277232594373092,0.17721636170168514,0
-0.7637636091796814,-0.7737926992097194,-0.7812484263778549,1.7630643038204228,0.8830693553181035,0
1.1158601819600134,0.9686160363074884,-0.23654384557527283,-0.2854134006085046,-1.0655429312618148,1
-0.9206771405892112,-0.8389294743692419,-0.2754513156326002,-1.1762733767173916,0.5095337449462183,1
1.3261910857642776,1.0663211990467716,-0.4310811958619091,1.0662056945457385,0.7181919682968999,1
-1.0909450150974258,-1.180897543956731,-1.0925081868364739,-1.3277232594373092,0.17721636170168514,0
0.6117337299847134,0.6755005480896408,1.8255520674630739,-0.9298733767164328,0.4430315341572034,1
2.003923998022462,1.2291631369455762,0.191438325055327,-0.18350541791655345,-1.0075292609272835,1
0.9055292781557492,0.8220582921985645,1.0863101363738557,-0.2647405753829878,-4.4222784109110345,1
0.975639579423837,0.8220582921985645,1.2808474866604922,1.13039947379733,-0.46826438950114996,1
0.5950408011113592,0.8220582921985645,1.5531997770617825,1.154621242254455,0.7308748542924409,1
-0.7604250234050101,-0.7900768929996003,-0.4699886659192368,-1.2447699277396904,0.7239263181399304,0
-0.18618827016162232,0.21954312197298745,0.15253085499800056,-0.2854134006085046,0.4855555931585624,1
0.010788290543958069,0.3335324785021516,2.9538686991255663,-0.2854134006085046,0.7703675800638599,1
1.2160177552001392,1.01746861767713,0.07471591488334527,0.8871900884884008,0.8752314493054945,1
0.3112610102643358,0.4638060288211945,1.7477371273484192,0.4394850913039803,0.46256995516279187,0
0.9188836212544321,1.01746861767713,-0.0030990252313095523,0.8104405788521084,0.3367832254686306,1
0.3713555542084111,0.31724828471227073,0.2692532651699818,-0.18350541791655345,-2.929845674302478,1
0.7085527174501679,0.6755005480896408,1.9422744776350558,-1.3277232594373092,0.17721636170168514,0
0.8587890773103568,1.033752811467011,-0.11982143540329107,-0.30935500910046043,0.2832367627449472,1
0.20442626547486795,0.024132796494422053,-0.7812484263778549,0.19813173413642357,0.7642314675372405,0
-1.1543781448161716,-1.0994765750073288,-0.5478036060338917,-0.18350541791655012,-0.5603544290445391,0
0.45815878434985413,0.8383424859884455,0.34706820528463667,0.4980713189641841,-0.03922841146868306,1
-1.1410238017174887,-1.1483291563769704,-0.9757857766644912,-0.20457188999354609,-0.7448020909206099,0
1.0991672530866592,1.01746861767713,2.1368118279216923,-1.2447699277396904,-1.4086158025922135,0
0.4414658554764998,0.38238505987179217,-0.4310811958619091,1.7052316273876464,1.0083608977899452,1
0.06754424871336293,0.15440634681346602,3.498573279928148,-1.2447699277396904,0.7239263181399304,1
0.5082375709699171,0.5940795791402385,1.59210724711911,0.05902766651550915,0.4798917357586839,1
1.0323955375932419,1.0988895866265322,0.5416055555712732,-0.9043593315829156,0.29283554649231375,0
-0.21957412790833095,0.20325892818310767,-0.042006495288636245,-0.37821118737579046,0.3367832254686306,0
-0.8372124962224397,-0.692371730260317,-0.8979708365498371,1.3147079536174568,0.21677523208628152,1
2.003923998022462,3.0204244538324256,2.097904357864365,0.17336511419008319,0.5979383635655893,1
-0.399857759740557,-0.39925624204246946,-0.6645260162058731,-0.9907872105969641,0.4625699551627949,1
0.1409931357561221,0.38238505987179217,1.3975698968324735,2.0352024544451655,0.6206791615415126,0
1.0991672530866592,1.033752811467011,-0.042006495288636245,1.2268710004261718,0.2624617747590356,1
-0.4733066467833162,-0.5132455985716325,-0.7423409563205282,-0.32196728473664893,0.3555855019453626,0
-1.2044569314362346,-1.2134659315364924,-0.6256185461485457,-0.22275850878342973,-0.45980358265929916,1
-0.3297474584724692,-0.089856560034741,-0.0030990252313095523,-1.1762733767173916,0.5095337449462183,0
0.07422142026270484,0.34981667229203145,0.34706820528463667,-1.1762733767173916,0.5095337449462183,1
-0.5567712911500877,-0.18756172277402314,0.891772786087219,-0.25247296303284644,0.9559483773062729,0
-0.810503810025073,-0.7249401178400788,-0.2754513156326002,-1.0275524697301557,0.14745470494356025,1
0.154347478854805,-0.024719784875218448,-1.248138067065783,-0.30935500910046043,0.4950564199525605,1
-1.077590671998742,-1.1483291563769704,-1.0146932467218188,2.8685930022099337,0.6587513876723419,0
-1.1376852159428175,-1.13204496258709,-0.5088961359765642,-0.2524729630328498,0.9559483773062729,1
-2.249434278908214,-2.516201434726928,-1.0925081868364739,0.1699766528066363,0.39699526929833345,1
0.6651511023794469,0.8220582921985645,-0.35326625574725506,-0.9907872105969641,-0.5165823175442315,1
-1.1143151155201212,-1.1971817377466114,-0.9757857766644912,0.5017525256904882,0.4625166892748194,0
0.7486157467462184,0.7406373232491622,1.9033670075777283,0.9781732943466499,0.8697602724428001,1
-0.9273543121385532,-0.936634637108524,-0.2754513156326002,-0.2647405753829878,0.14745470494356025,0
-0.4833224041073286,-0.41554043583234923,-0.042006495288636245,-0.3085916937681651,-1.4086158025922135,0
0.29456808139098145,0.4963744164009552,-0.31435878568992764,1.3034423075647203,0.6436278346045382,1
0.010788290543958069,0.15440634681346602,-0.0030990252313095523,0.38765591793311716,-0.18086381957023087,1
-0.847228253546453,-0.5620981799412741,0.11362338494067267,0.9210507330703235,0.3554840102691091,0
0.06086707716402102,0.38238505987179217,0.6194204956859276,1.215201845809023,0.29283554649231375,0
-0.23292847100701475,-0.17127752898414333,-0.31435878568992764,0.9083360426444446,0.7368700973850362,0
-0.897307040166516,-0.936634637108524,-0.8201558964351823,0.4394850913039803,0.020027480715057576,1
0.3646783826590692,0.6103637729301193,0.9306802561445464,-0.2854134006085046,0.9337153069245666,0
-0.9707559272092742,-1.0994765750073288,-1.0536007167791464,0.3952207410623302,-0.1738427065864486,0
0.3513240395603863,0.6103637729301193,1.59210724711911,0.4980713189641841,0.14745470494356025,1
0.3713555542084111,0.3009640909223898,0.07471591488334527,1.2882484252869233,1.0100100541645307,0
0.10760727800941347,0.1381221530235851,0.5026980855139458,0.9819568470744781,0.5409552898769252,1
-0.3764876593178617,-0.2689826917234255,-0.2754513156326002,-0.2524729630328498,0.13573986933237409,0
0.7619700898449023,0.9686160363074884,0.4637906154566184,-1.1762733767173916,0.5095337449462183,1
-0.8505668393211235,-0.7249401178400788,-0.23654384557527283,-0.25247296303284644,0.13573986933237103,1
-0.6702832074888975,-0.6109507613109157,-0.7812484263778549,1.0357124955864176,0.8980327851535344,0
-1.4748823791845742,-1.6368549700733839,-1.1314156568938014,0.3414797805288508,0.8335101880816745,0
0.9923325082971913,1.0826053928366526,2.2924417081510016,-1.2447699277396904,-0.7448020909206099,0
0.7786630187182566,0.7080689356694015,-0.08091396534596365,-0.9907872105969641,0.020027480715060636,0
1.9471680398530578,1.489710237583663,0.07471591488334527,0.06673897637728021,0.7870664182723968,1
-1.0942836008720964,-1.0506239936376875,-0.8979708365498371,-1.0697714212619565,0.6463658013874533,0
0.7853401902675976,0.887195067358086,-0.7034334862632008,-1.1187554643117514,-1.0525144259758576,1
0.04083556251599621,0.31724828471227073,0.15253085499800056,0.7038428408220647,0.4656615117821563,0
1.1726161401294173,1.01746861767713,1.864459537520401,0.38765591793312043,-0.18086381957023087,1
-0.7203619941089604,-0.43182462962223017,0.15253085499800056,1.563834439409629,0.6206791615415126,0
0.975639579423837,1.01746861767713,0.07471591488334527,-1.1762733767173916,-1.0632705932698505,0
-0.8572440108704654,-1.0017714122680466,-0.8590633664925097,-0.23858789391117072,-0.5437045248778608,0
-0.019258981428079143,0.1055537654438244,-0.39217372580458176,0.5780253589781195,-0.26711547834802285,0
-1.8387882286236983,-1.995107233450754,-0.8590633664925097,-0.3417356302711258,0.5952738730383925,0
-0.9740945129839457,-0.9854872184781657,-0.4699886659192368,-0.3093550091004563,-0.038116859001157966,0
-0.399857759740557,-0.31783527309306714,-0.4310811958619091,-0.22275850878342973,-1.191544216649242,0
-1.2011183456615642,-1.4414446445948184,-1.1703231269511278,-1.2447699277396904,-2.877344211652754,1
-0.1795110986122804,0.15440634681346602,0.5416055555712732,-0.3373489142384843,0.7081581272166709,1
-0.543416948051404,-0.3504036606728278,0.5026980855139458,-1.1187554643117514,0.3892228840555374,1
-1.2178112745349186,-1.3274552880656554,-0.7423409563205282,0.7737932903218189,0.39890532058002104,1
-0.8138423957997444,-0.8063610867894812,-0.4310811958619091,-1.1762733767173916,0.8754040619411921,0
0.2244577801228937,0.31724828471227073,0.11362338494067267,0.4980713189641841,-0.42748436461996736,0
1.0290569518185704,1.1640263617860538,0.3859756753419636,0.7161395045265446,0.4207927432592261,0
-0.7904722953770482,-0.5946665675210349,0.9306802561445464,-0.20457188999354609,0.32146896944546055,0
1.4597345167511122,1.1640263617860538,0.23034579511265443,-0.9907872105969641,0.9051124296105307,1
-0.2529599856550396,-0.1387091414043815,-0.5088961359765642,-0.20457188999354609,-1.1472594396150797,0
-0.055983424949459196,0.007848602704542263,-0.0030990252313095523,-0.8420663036097207,0.7642314675372405,0
2.0840500566145628,2.010804438859838,2.60370146860962,-1.3277232594373092,-1.0075292609272835,1
1.4196714874550616,1.2291631369455762,0.03580844482601786,1.612832937774136,0.4430315341572034,1
-1.5249611658046371,-1.5717181949138619,-0.5867110760912183,0.2666238395640565,0.7695891730161702,0
0.034158390966654295,0.20325892818310767,-0.042006495288636245,-0.20457188999354609,0.3214689694454575,1
1.2861280564682271,1.1803105555759346,0.3859756753419636,-0.2854134006085046,-1.3836310621383656,0
-1.7152605549608766,-1.929970458291232,-0.8201558964351823,-1.1187554643117514,0.7246040079675915,1
-0.04930625340011728,-0.15499333519426242,-1.2870455371231102,-0.2756510596464944,0.2883323798447051,0
-0.20621978480964712,-0.36668785446270874,-0.5088961359765642,1.7736276702238942,0.1339991219357957,0
-0.9507244125612494,-0.8063610867894812,-0.39217372580458176,0.9607124236042031,-2.639449715438995,1
-0.055983424949459196,-0.22013011035378385,-1.0146932467218188,0.1751085774981374,-0.2699584701810608,0
0.3112610102643358,0.5126586101908361,-0.31435878568992764,-1.3277232594373092,-2.639449715438995,0
0.564993529139321,0.28467989713251,-0.7034334862632008,-0.2854134006085046,0.10394816733506354,1
-1.0442048142520335,-1.2134659315364924,-0.8590633664925097,-1.0275524697301557,0.6216073561375636,0
-0.7470706803063272,-1.066908187427568,-1.248138067065783,-0.2941967980937935,0.3287122305858288,0
-1.2278270318589308,-1.4088762570150577,-0.9368783066071648,-0.2647405753829878,-0.6521973598564984,0
0.06086707716402102,0.3335324785021516,-0.1587289054606187,-1.1762733767173916,0.14366342795125064,0
1.1659389685800763,1.147742167996174,0.23034579511265443,0.6197655515821403,0.7239263181399304,0
-0.7370549229823138,-0.8063610867894812,-0.6645260162058731,0.11585781541312301,0.452147150934029,1
-1.6818746972141678,-1.8322652955519492,-0.8201558964351823,1.3845146602425444,0.6554878569881009,0
0.3580012111097282,0.28467989713251,-0.8201558964351823,-0.2854134006085046,0.7703675800638599,1
0.3580012111097282,0.1381221530235851,0.5416055555712732,0.564825495196261,0.6463658013874533,0
-4.8101295680807645,-4.926262115629235,-0.5478036060338917,0.9927917353025173,0.6321397998084024,1
-1.0876064293227545,-0.9203504433186442,1.0084951962592008,-0.9298733767164328,0.8335101880816745,1
-0.5300626049527211,-0.5458139861513932,-1.0536007167791464,-0.9907872105969641,0.4625699551627949,0
-2.6934661869394385,-2.9558746670537004,-1.4815828874097468,0.22892765150241084,0.6267549101042584,1
-1.2612128896056396,-1.2134659315364924,0.191438325055327,0.5157457478075215,-1.1472594396150781,0
-0.34644038734582355,-0.15499333519426242,1.0474026663165281,0.4980713189641841,0.6216073561375575,1
1.0457498806919248,0.9686160363074884,-0.08091396534596365,-1.0275524697301557,0.14745470494356025,1
-0.09604645424550881,0.1055537654438244,-0.0030990252313095523,-0.18350541791655345,0.6243911935844265,0
-0.5667870484741001,-0.41554043583234923,-0.35326625574725506,0.3000805015968256,0.5460017570747973,1
2.020616926895816,1.3757208810545,0.03580844482601786,-1.1762733767173916,-0.825673899654273,1
0.10426869223474206,0.3009640909223898,-0.5867110760912183,-0.2756510596464944,-0.7848872166738774,0
-1.6217801532700922,-1.7508443266025469,-0.8201558964351823,-1.2447699277396904,0.32146896944546055,1
-0.9607401698852618,-0.9692030246882848,-0.7423409563205282,0.7353664841576538,0.9051124296105276,0
-0.5634484626994296,-0.6435191488906765,-0.5088961359765642,-1.1187554643117514,0.7246040079675915,0
0.17771757927750123,0.31724828471227073,-0.8201558964351823,-1.0275524697301557,-0.32669794625044457,1
-1.0608977431253876,-1.0831923812174484,-0.35326625574725506,0.7335660580381165,0.7841793889690187,0
-1.3213074335497148,-1.3274552880656554,-0.8201558964351823,-0.3373489142384843,0.2803243994817319,0
-0.6035114919954802,-0.43182462962223017,-0.7034334862632008,-0.2524729630328498,0.6463658013874533,0
-1.3046145046763606,-1.5717181949138619,-1.4037679472950917,1.4092792654387392,0.5938768060967571,1
-1.120992287069463,-1.115760768797209,-0.19763637551794613,2.1606385845803233,0.7845601155223845,1
-0.2696529145283939,-0.3015510793031862,-0.7812484263778549,1.3626323352681684,0.6985907556743223,0
-1.5883942955233834,-1.4740130321745792,-0.23654384557527283,1.0617110124822906,0.7870664182723968,1
-0.34310180157115305,-0.6109507613109157,-0.8979708365498371,1.5224664946342998,0.6902574315705652,1
-1.177748245238868,-1.0831923812174484,-0.0030990252313095523,-1.1187554643117514,0.7246040079675915,0
1.0023482656212037,1.0011844238872503,-0.6256185461485457,-0.2854134006085046,0.7703675800638599,1
-0.9941260276319704,-0.9854872184781657,-0.39217372580458176,1.4163163853478522,0.7338135693627298,0
-1.2178112745349186,-1.1483291563769704,-0.7812484263778549,0.1751085774981374,-0.046371054239687806,0
-1.444835107212537,-1.3274552880656554,0.11362338494067267,-1.2447699277396904,-4.607428983690429,0
0.11762303533342587,0.3009640909223898,0.15253085499800056,1.1649486889116358,0.42119610127742757,1
-1.581717123974042,-1.5065814197543403,-0.7034334862632008,-0.2854134006085046,0.5188317371298159,0
0.83208039111299,0.7894899046188039,0.7361429058579098,-0.2647405753829878,-0.4655142434442581,0
-0.23960564255635575,-0.31783527309306714,-0.8590633664925097,-0.2524729630328498,0.6463658013874533,0
-1.3346617766483986,-1.4088762570150577,-0.6645260162058731,-1.2447699277396904,-2.877344211652754,0
-1.5650241951006876,-1.6857075514430255,-1.325953007180438,-1.3277232594373092,0.6243911935844265,0
-0.5033539187553543,-0.5946665675210349,-0.9368783066071648,-0.3153420752043205,-1.8552149766527195,0
-0.947385826786578,-1.066908187427568,-0.9368783066071648,0.9407338332714166,0.9790089585165923,0
-0.4699680610086457,-0.5295297923615134,-1.1703231269511278,-1.3277232594373092,-3.8833529273501926,1
1.0858129099879752,1.147742167996174,0.11362338494067267,1.0446244729604865,0.7866561179138094,1
-0.20621978480964712,0.04041699028430298,-0.08091396534596365,-0.2854134006085046,0.6821794639905272,1
-0.42656644593792464,-0.31783527309306714,0.9306802561445464,2.421610729941603,0.9615214565798427,1
-0.09604645424550881,0.23582731576286836,0.9695877262018738,1.1025854427863535,-0.6141674810322076,1
0.7986945333662814,0.887195067358086,-0.6256185461485457,0.9232009075020458,0.7276015184243685,1
-1.2779058184789938,-1.5228656135442207,-1.3648604772377644,0.7161395045265446,0.04339508956153624,1
-1.1143151155201212,-1.1646133501668507,-0.7423409563205282,-1.1762733767173916,0.5095337449462183,0
-0.029274738752091547,0.3009640909223898,0.6972354358005824,-1.2447699277396904,0.3214689694454575,1
-0.9373700694625656,-1.2297501253263727,-0.9757857766644912,1.238329771882557,0.7642314675372405,0
-0.4766452325579876,-0.43182462962223017,-0.39217372580458176,1.154621242254455,0.46256995516279187,0
-1.0675749146747295,-1.066908187427568,-0.7423409563205282,0.501229615811827,0.5867918813367354,1
0.428111512377816,0.4638060288211945,1.7477371273484192,-0.20457188999354609,0.3214689694454575,0
-0.8405510819971111,-1.0180556060579264,-0.8979708365498371,-0.2524729630328498,-1.1950945706966085,0
0.7219070605488518,0.8057740984086847,-0.39217372580458176,1.296359824286295,0.9821130263836682,1
1.8803963243596404,1.8968150823306749,3.070591109297548,1.8782630563848606,0.4470159117468369,1
0.2878909098416395,0.28467989713251,-0.9757857766644912,-0.2647405753829878,-0.4655142434442581,0
0.35466262533505677,0.4475218350313147,-0.4699886659192368,1.4295316041010255,0.9812269462867816,0
1.1525846254813925,1.0500370052568906,1.5142923070044552,-1.1762733767173916,-0.09393326566432841,0
0.5616549433646505,0.43123764124143377,2.2535342380936747,-0.20457188999354609,-0.7448020909206114,1
-0.3631333162191779,-0.2526984979335457,-0.6256185461485457,0.7193067264398766,0.9852826811170627,0
0.2611822236442728,0.528942803980717,0.4637906154566184,-1.2447699277396904,0.3214689694454575,0
0.8988521066064074,0.903479261147967,1.2808474866604922,-0.9907872105969641,-0.9946193455613033,1
0.6150723157593839,0.903479261147967,0.5805130256286006,-1.1187554643117514,0.7246040079675915,0
0.22111919434822228,0.4800902226110754,0.3859756753419636,2.9194398870498173,0.9698496067891998,1
-0.7337163372076433,-0.8226452805793609,-1.0536007167791464,-0.8093779954254621,0.8522579166922102,0
-1.3914177348178025,-1.6042865824936232,-0.8979708365498371,-0.35651024229261563,0.7643245106531793,0
1.2026634121014554,1.033752811467011,-0.7812484263778549,1.2164133149781173,0.49732146135534555,1
0.01746546209329998,-0.12242494761450172,-1.248138067065783,0.2666238395640565,0.29283554649231375,0
-0.6602674501648841,-0.9040662495287634,-1.3648604772377644,-0.30935500910046043,0.8724540736502504,0
-0.5500941196007458,-0.5132455985716325,-1.2870455371231102,-0.2756510596464944,-0.2837719719839215,0
-1.1844254167882098,-1.3763078694352964,-0.8979708365498371,-0.32750936524587676,0.42119610127742757,0
-0.0059046383293962475,-0.024719784875218448,-0.6645260162058731,0.7161395045265446,-0.038116859001157966,0
-0.23292847100701475,-0.2852668855133064,-0.11982143540329107,1.438681273965552,0.8482322608077931,1
0.9956710940718618,1.033752811467011,0.9695877262018738,0.564825495196261,0.6463658013874533,1
2.1341288432346257,1.5874154003229464,0.424883145399291,1.8907873154971757,0.807510942945728,1
-0.6936533079115927,-0.7575085054198395,-0.7423409563205282,-1.0275524697301557,-0.1780447086624966,1
-0.306377358049773,-0.3829720482525885,-0.8201558964351823,1.1423356880910722,-0.2464077210228188,1
-1.4481736929872076,-1.4577288383846987,-0.4699886659192368,-0.9298733767164328,0.17497319354045682,1
-0.8939684543918446,-1.066908187427568,-0.6256185461485457,-0.9584827191501256,0.9337153069245666,0
0.5549777718153086,0.5126586101908361,-0.23654384557527283,-1.2447699277396904,0.7239263181399272,1
0.7352614036475347,0.903479261147967,-0.4310811958619091,0.4980713189641841,0.909076890919322,0
-1.1310080443934756,-1.3437394818555357,-0.9757857766644912,0.2627539116599183,0.632612400466844,0
0.745277160971548,0.6429321605098801,1.2419400166031647,-0.3085916937681651,0.7239263181399304,1
-0.4933381614313419,-0.7737926992097194,-0.8590633664925097,1.7479291471865497,0.8830693553181035,1
0.41141858350446164,0.6266479667199991,-0.11982143540329107,-0.2756510596464944,0.6368075304808831,1
-0.5901571488967964,-0.39925624204246946,-0.19763637551794613,-1.0275524697301557,0.10942482611926796,0
-1.307953090451031,-1.4902972259644596,-0.8201558964351823,0.9427743878181568,-0.3119308828468203,1
-0.6702832074888975,-0.8226452805793609,-0.8590633664925097,0.7045388148057053,-1.2711576014303771,0
-1.581717123974042,-1.6694233576531445,-1.2092305970084551,0.9407338332714232,0.2545833052123219,0
-0.5601098769247582,-0.2689826917234255,-0.1587289054606187,-1.0697714212619565,0.13573986933237103,1
-0.9139999690398702,-1.0017714122680466,-1.0146932467218188,-0.30935500910046043,0.8724540736502504,1
0.07756000603737533,0.28467989713251,0.3859756753419636,1.3683133563431191,0.6048092619826052,0
-0.15280241241491366,-0.31783527309306714,-1.0146932467218188,-0.3531784058839394,-0.7689184299719972,0
0.07422142026270484,0.28467989713251,-0.5867110760912183,-0.33262056145848784,0.5867918813367354,1
-0.393180588191216,-0.18756172277402314,-0.7034334862632008,-1.2447699277396904,0.7239263181399272,0
-1.1477009732668297,-1.4577288383846987,-1.0925081868364739,-0.22275850878342973,0.5095337449462183,0
0.471513127448537,0.4475218350313147,0.6194204956859276,-1.3277232594373092,-0.5603544290445391,1
1.0223797802692294,0.903479261147967,0.5416055555712732,3.0631667135966127,0.5525516050926607,0
1.069119981114621,1.01746861767713,1.1641250764885103,-1.2447699277396904,0.7239263181399304,1
1.2794508849188853,0.9360476487277276,1.125217606431183,1.6251904041309158,0.6013129769115501,1
0.15768606462947643,0.4963744164009552,0.3859756753419636,0.14413687250849555,0.6712887578894878,0
0.7653086756195728,0.4800902226110754,-1.2092305970084551,1.0401767359159138,0.437874142225614,0
-0.11607796889353454,-0.2526984979335457,-0.7423409563205282,-1.0697714212619565,-0.524380536623737,1
1.2327106840734936,1.147742167996174,0.8139578459725642,0.3414797805288475,-1.2848842412081385,1
0.6351038304074097,0.8383424859884455,0.30816073522730925,-1.1187554643117514,-1.6056925190355276,0
0.29456808139098145,0.3335324785021516,-0.23654384557527283,-0.03143068346578248,0.43033484707436015,0
0.8955135208317369,0.887195067358086,0.4637906154566184,-0.23858789391117072,-0.49933633291618795,0
1.2226949267494802,1.0500370052568906,1.7088296572910917,-1.1762733767173916,0.5095337449462183,1
-0.897307040166516,-0.8877820557388835,-0.5867110760912183,0.28528698455724183,0.909076890919322,1
0.7252456463235223,0.7894899046188039,1.6699221872337644,-0.20457188999354609,-1.1472594396150797,1
-0.8705983539691483,-0.692371730260317,-0.0030990252313095523,1.6094485938986154,0.41554443771067356,1
1.6466953201326802,1.4082892686342607,0.191438325055327,-0.23858789391117072,0.7246040079675915,1
0.7986945333662814,0.8546266797783253,-0.8979708365498371,-1.0697714212619565,-0.994051214560352,0
0.8053717049156233,0.8709108735682062,-0.6256185461485457,-1.0275524697301557,0.14745470494356025,0
-0.38316483086720265,-0.20384591656390405,-0.7034334862632008,-0.18350541791655345,-1.4547040928100263,0
-1.1610553163655135,-1.2297501253263727,-0.8979708365498371,0.977156359151495,0.6797711510363041,1
1.5498763326672247,1.392005074844381,2.564793998552293,-0.9584827191501256,-0.1475876755989774,1
-0.26297574297905196,0.0567011840741839,0.6972354358005824,-0.2647405753829878,0.4349242397253172,1
-0.31973170114845684,-0.18756172277402314,-0.31435878568992764,0.641579676489415,-2.65620408273337,1
0.1443317215307926,0.20325892818310767,-0.7034334862632008,-0.9298733767164328,-0.6889846941422172,1
-0.04930625340011728,-0.05728817245498029,-0.6256185461485457,1.8654360484968233,1.0114265119113846,1
0.6351038304074097,0.8383424859884455,1.125217606431183,-0.22275850878342973,-0.09393326566432841,1
1.3295296715389482,1.0826053928366526,0.5026980855139458,0.3000805015968256,0.14763756706056994,0
0.4648359558991951,0.6592163542997599,0.5026980855139458,-1.0697714212619565,0.33678322546863365,1
-1.0208347138293372,-0.9529188308984049,-0.4310811958619091,0.5017525256904775,0.7468874794555823,0
1.1225373535093552,0.9523318425176085,-0.31435878568992764,0.6607234542325319,0.023068887062558305,1
1.6266638054846543,1.4082892686342607,-0.042006495288636245,0.3271527667920533,0.5614750731106833,1
1.0056868513958752,0.903479261147967,1.358662426775146,1.6504984926704027,0.5472318584665374,1
-0.7136848225596185,-0.8063610867894812,-1.2092305970084551,-0.30935500910046043,-1.302556479844239,0
0.695198374351485,1.0011844238872503,1.0084951962592008,0.38765591793311716,0.7703675800638599,0
-0.8906298686171741,-0.8063610867894812,-0.4310811958619091,-1.3277232594373092,-1.0075292609272835,0
-0.26297574297905196,0.17069054060334696,0.891772786087219,-1.3277232594373092,-5.06809854997916,0
1.306159571116252,1.1314579742062931,-0.7423409563205282,0.4980713189641841,0.6216073561375575,0
1.4831046171738074,1.4245734624241417,1.2808474866604922,-1.1762733767173916,0.5095337449462183,1
-0.5000153329806829,-0.20384591656390405,-0.08091396534596365,-1.3277232594373092,-1.0075292609272835,1
-1.0442048142520335,-1.0506239936376875,-0.6645260162058731,-0.22275850878342973,0.5095337449462183,0
-1.0508819858013754,-1.13204496258709,-0.9368783066071648,0.7307563591505362,0.5095337449462183,0
0.8153874622396358,0.7894899046188039,1.2419400166031647,-0.20457188999354609,-1.1472594396150797,1
-0.24628281410569766,0.15440634681346602,0.2692532651699818,-1.2447699277396904,-2.2135304999811516,0
-0.32307028692312734,-0.2689826917234255,-0.5478036060338917,-0.18350541791655345,0.6243911935844265,0
-0.08603069692149641,-0.07357236624486008,-0.23654384557527283,-1.0697714212619565,0.13573986933237409,1
1.2093405836507973,1.2291631369455762,1.7866445974057465,0.641579676489415,0.7246040079675976,1
-0.299700186500432,0.18697473439322673,1.7477371273484192,0.3828745185630954,-0.2099782501162891,1
0.49154464209656273,0.3335324785021516,-0.8979708365498371,-0.20457188999354609,-1.1472594396150797,1
0.35466262533505677,0.4149534474515528,-0.19763637551794613,-0.30935500910046043,0.8724540736502504,0
-0.3297474584724692,0.04041699028430298,1.3975698968324735,0.3414797805288475,0.4430315341572034,0
-0.45995230368463325,-0.024719784875218448,1.5531997770617825,-1.0275524697301557,-1.7012890806140246,1
0.21444202279888128,0.08926957165394461,-0.9757857766644912,-0.2524729630328498,0.6463658013874533,0
0.2478278805455899,0.38238505987179217,0.7750503759152372,0.9737934258419066,0.7246040079675976,0
1.6567110774566924,1.4408576562140214,2.0200894177497104,1.8747138046990635,0.9422246998738073,0
0.5483006002659667,0.7569215170390432,3.070591109297548,0.6103004549242648,0.5472318584665374,1
-0.7737793665036938,-0.5132455985716325,0.30816073522730925,-1.3277232594373092,-2.192274883556252,0
1.4497187594270988,1.392005074844381,2.058996887807038,-0.22275850878342973,0.5095337449462183,0
-0.42990503171259514,-0.4969614047817516,-1.0146932467218188,1.0154330660244058,0.7142918815964473,1
-0.3297474584724692,-0.024719784875218448,0.5805130256286006,-0.2524729630328498,-0.6844686386415293,0
-0.6836375505875804,-0.5295297923615134,0.03580844482601786,-1.3277232594373092,-0.5603544290445391,1
0.8554504915356863,0.9849002300973693,1.6699221872337644,0.7915237476776491,0.8830693553181035,1
1.7067898640767554,1.4245734624241417,-0.4699886659192368,-0.3219672847366531,0.888686878478733,1
-0.7871337096023767,-0.8552136681591217,-1.0536007167791464,1.003473791830426,0.8703297482068939,1
-1.2378427891829433,-1.1971817377466114,-0.19763637551794613,-0.2756510596464944,0.6368075304808831,0
-0.6035114919954802,-0.3504036606728278,0.23034579511265443,-1.1187554643117514,0.3892228840555374,0
-0.9740945129839457,-1.0180556060579264,-0.8979708365498371,-1.1187554643117514,-0.16395520900412927,0
-1.6184415674954216,-1.7834127141823082,-0.8590633664925097,-0.31593798731699807,0.8546044996284943,0
0.3413082822363739,0.5940795791402385,0.4637906154566184,-0.20457188999354609,-0.34234474222614314,0
-0.6702832074888975,-0.6109507613109157,-0.8201558964351823,1.5217472468899924,-0.49933633291618795,0
-1.2979373331270185,-1.4577288383846987,-0.8590633664925097,1.5419020223697542,0.8338242487007563,1
0.17771757927750123,0.4638060288211945,0.34706820528463667,0.6587707887423259,0.7974007665359593,1
0.7820016044929271,0.6917847418795205,1.5142923070044552,-1.2447699277396904,0.32146896944546055,0
1.3328682573136195,1.2942999121050978,0.3859756753419636,0.009464842762764214,0.8490250006256642,1
1.0357341233679123,1.1314579742062931,0.34706820528463667,-0.2524729630328498,0.13573986933237103,1
-1.177748245238868,-1.3274552880656554,-0.9368783066071648,0.8318391729209605,0.5540702182724523,0
-0.9073227974905284,-0.9529188308984049,-1.0925081868364739,-1.1762733767173916,-1.4291409102648212,0
-1.408110663691157,-1.4088762570150577,-0.9368783066071648,-0.18350541791655345,0.6243911935844265,0
0.19774909392552698,0.12183795923370531,-0.19763637551794613,0.8733096910235748,0.13573986933237409,0
0.6451195877314221,0.8220582921985645,0.03580844482601786,0.16274687475693167,0.6463658013874533,0
-0.15947958396425557,0.21954312197298745,1.4364773668898012,-0.22275850878342973,-1.4291409102648212,1
0.5115761567445876,0.7243531294592824,0.424883145399291,1.325819099797014,0.990263191732656,0
-0.7570864376303396,-0.8714978619490026,-0.7423409563205282,-0.9043593315829156,0.29283554649231375,0
0.2545050520949309,0.5126586101908361,0.8528653160298916,1.8020570047875786,0.4902359191071496,0
-1.4481736929872076,-1.6694233576531445,-0.6645260162058731,-0.18350541791655345,-2.639449715438995,1
-0.8372124962224397,-0.7900768929996003,-0.1587289054606187,0.38558110527333517,-0.16395520900412927,0
0.4614973701245246,0.7243531294592824,1.59210724711911,-1.1762733767173916,0.5095337449462183,1
0.05085131984000861,0.5452269977705968,0.4637906154566184,-0.22275850878342973,-0.825673899654273,1
-0.8572440108704654,-1.0017714122680466,-0.8590633664925097,-0.2647405753829878,0.4349242397253172,0
-0.3297474584724692,0.15440634681346602,-0.08091396534596365,-0.3496215625990446,0.7142918815964473,1
-2.032426203554608,-2.288222721668602,-0.8590633664925097,2.785625340543748,0.7348980931359714,1
-0.01592039565340865,0.15440634681346602,-0.0030990252313095523,-1.2447699277396904,0.32146896944546055,1
1.0657813953399504,1.1965947493658156,2.058996887807038,-0.9584827191501256,-1.5276454653055498,1
-0.14278665509090127,0.08926957165394461,0.11362338494067267,1.1025854427863535,0.4349242397253172,1
0.9355765501277864,1.01746861767713,0.658327965743255,1.6564705223440466,0.7190466954598974,0
1.1358916966080381,0.7569215170390432,-0.39217372580458176,-1.2447699277396904,0.32146896944546055,1
2.1675147009813345,1.750257338221751,1.4753848369471287,-1.1187554643117514,-0.16395520900412927,1
1.1959862405521136,0.8220582921985645,1.9033670075777283,-1.3277232594373092,0.6243911935844265,0
-0.00924322410406674,-0.07357236624486008,-0.7034334862632008,-1.2447699277396904,-0.7448020909206114,0
-0.022597567202750562,0.23582731576286836,0.11362338494067267,-1.3277232594373092,0.17721636170168514,1
-0.8672597681944778,-0.7249401178400788,-0.31435878568992764,-0.23858789391117072,-2.27645476685964,0
0.19107192237618506,0.4638060288211945,0.11362338494067267,-0.9584827191501256,0.23401975022451993,1
-1.1810868310135385,-1.1483291563769704,-0.5867110760912183,0.3952207410623302,0.9559483773062729,0
-1.6952290403128512,-1.7182759390227862,-0.8590633664925097,0.19813173413642357,-0.1627857232024626,0
1.5899393619632753,1.2128789431556954,1.3975698968324735,-1.0275524697301557,0.4349242397253218,1
-0.7470706803063272,-0.5295297923615134,0.5805130256286006,-0.2524729630328498,0.6463658013874533,0
-0.35311755889516544,-0.36668785446270874,-0.5088961359765642,-1.3277232594373092,0.6243911935844265,0
1.2160177552001392,1.0663211990467716,0.891772786087219,-1.1187554643117514,-1.0525144259758576,1
2.2175934876013974,1.6036995941128263,0.191438325055327,-0.2647405753829878,-1.7012890806140246,1
-0.8705983539691483,-0.8063610867894812,-0.4310811958619091,-0.2647405753829845,0.6216073561375636,1
-1.0608977431253876,-0.8226452805793609,-0.6645260162058731,-0.33262056145848784,0.9367547932449671,0
1.075797152663963,1.0663211990467716,2.564793998552293,-0.9584827191501256,0.3554840102691091,0
-0.3965191739658865,-0.20384591656390405,-0.1587289054606187,0.3414797805288508,0.17497319354045682,0
0.5449620144912962,0.4963744164009552,-0.4699886659192368,0.20591458211984895,-1.3836310621383656,1
0.18439475082684315,0.024132796494422053,-0.8979708365498371,0.3414797805288508,-0.6889846941422172,0
1.5465377468925543,1.3757208810545,2.097904357864365,-1.1762733767173916,-1.4291409102648212,1
0.5048989851952457,0.21954312197298745,-0.6645260162058731,1.69060814925269,0.3367832254686306,0
-0.24962139988036908,-0.22013011035378385,0.03580844482601786,-0.9584827191501256,0.9337153069245697,1
1.4831046171738074,1.2942999121050978,-0.2754513156326002,0.22892765150241084,0.5295835020685895,1
0.04751273406533812,0.4638060288211945,0.7361429058579098,-0.23858789391117072,-0.16395520900412927,1
-0.33976321579648167,-0.22013011035378385,0.30816073522730925,-1.2447699277396904,-3.3330433907012287,0
-1.30127591890169,-1.3274552880656554,-0.8590633664925097,0.0779681399420573,0.4625166892748194,1
-1.1877640025628804,-1.311171094275775,-1.2870455371231102,-1.1187554643117514,-1.0525144259758576,1
-0.09270786847083833,0.007848602704542263,-0.35326625574725506,-0.2647405753829878,-0.1780447086624966,1
1.7668844080208308,1.2291631369455762,0.15253085499800056,0.38765591793311716,0.23401975022451993,1
-0.486660989882,-0.41554043583234923,-0.0030990252313095523,0.8501675050132563,0.7253478309897794,0
-0.8238581531237568,-0.6435191488906765,-0.08091396534596365,-1.2447699277396904,-0.7448020909206099,0
1.5298448180192,1.392005074844381,-0.4310811958619091,-0.23858789391117072,-1.0525144259758576,0
-1.4147878352404988,-1.5717181949138619,-0.6256185461485457,1.0390980116617237,0.9058647650801894,0
-0.025936152977421054,0.12183795923370531,0.07471591488334527,-1.2447699277396904,-4.346072620713295,0
-0.6836375505875804,-0.5946665675210349,-0.1587289054606187,-0.9907872105969641,-0.6908198928623227,1
1.2160177552001392,1.0663211990467716,0.5026980855139458,-1.1762733767173916,-1.191544216649242,1
0.4648359558991951,0.8057740984086847,0.191438325055327,-1.0275524697301557,0.4349242397253172,0
-0.1761725128376099,0.12183795923370531,0.23034579511265443,-0.20457188999354609,-2.2135304999811516,0
-0.7136848225596185,-0.578382373731154,-0.2754513156326002,-0.9584827191501256,0.5188317371298159,1
-1.3279846050990567,-1.246034319116253,-0.5478036060338917,-1.1187554643117514,0.3892228840555374,0
-0.5133696760793667,-0.4481088234121111,-0.7812484263778549,-1.1762733767173916,0.8754040619411921,0
0.8420961484370024,1.0663211990467716,0.9306802561445464,0.14403058376617,0.09943912151312247,1
-0.6202044208688345,-0.708655924050198,-0.4699886659192368,-1.1187554643117514,0.7246040079675915,0
-1.1443623874921593,-1.1971817377466114,-1.2870455371231102,0.2910809314367902,0.020027480715057576,1
1.069119981114621,0.7243531294592824,1.0863101363738557,0.9023004181866974,0.29283554649231375,1
-0.44659796058594947,-0.36668785446270874,0.9695877262018738,1.4477904208619456,0.9969575978933304,1
1.3328682573136195,0.9360476487277276,0.15253085499800056,-1.2447699277396904,-1.1472594396150797,1
0.7285842320981937,0.7406373232491622,1.7866445974057465,-1.2447699277396904,-0.34234474222614314,0
0.48820605632189135,0.8709108735682062,0.23034579511265443,-0.2524729630328498,0.13573986933237409,1
0.38470989730709493,0.6103637729301193,-0.7812484263778549,-0.9584827191501256,0.7703675800638599,1
0.3880484830817654,0.39866925366167305,0.424883145399291,-1.3277232594373092,-1.0075292609272835,1
0.2578436378696023,0.5615111915604778,-0.042006495288636245,2.8200805430099396,0.7157910750751818,1
-1.2478585465069556,-1.360023675645416,-0.7812484263778549,0.3414797805288475,0.5967705712025769,0
-0.8906298686171741,-0.9203504433186442,-1.0925081868364739,0.12033822236981728,0.2545833052123219,0
2.2543179311227766,1.5385628189533047,-0.8201558964351823,-0.3021394149930495,0.7695891730161702,1
-0.3664719019938484,-0.5132455985716325,-0.7423409563205282,-1.2447699277396904,-1.1472594396150797,1
0.4514816128005122,0.5940795791402385,1.125217606431183,0.8790509432006806,-0.2790520904088368,0
-1.2612128896056396,-1.3763078694352964,-1.0146932467218188,0.4345837820539528,0.1976766462327877,1
-1.1443623874921593,-1.2623185129061334,-0.9368783066071648,1.1016918460058147,0.9224145308291773,0
-0.543416948051404,-0.6272349551007955,-1.2092305970084551,-0.9043593315829156,0.29283554649231064,0
1.0323955375932419,1.0500370052568906,1.5142923070044552,-0.22275850878342973,0.5095337449462183,0
-0.45661371790996186,-0.5458139861513932,-1.0925081868364739,-0.2941967980937935,0.8335101880816776,0
0.16436323617881834,-0.04100397866509937,-0.8201558964351823,1.3019409784683762,0.7223937745070849,1
1.0858129099879752,1.1314579742062931,-0.6256185461485457,1.6681796704696363,0.2860020361379873,1
-0.26297574297905196,-0.024719784875218448,-0.5867110760912183,-0.22275850878342973,0.5095337449462183,0
-0.9273543121385532,-0.8714978619490026,-0.8201558964351823,-0.9584827191501256,0.5188317371298173,0
1.9872310691491073,1.9619518574901962,1.981181947692383,-0.9584827191501256,0.5188317371298173,1
0.37469413998308254,0.8546266797783253,0.8139578459725642,0.6617330192561824,-2.9884184445446937,0
1.4530573452017703,1.4245734624241417,2.5258865284949663,1.020690773669927,0.7701683809811214,1
-2.0457805466532912,-2.2068017527192,-0.8590633664925097,0.9771563591514916,0.8335101880816745,0
-0.44659796058594947,-0.4969614047817516,-0.7034334862632008,-0.9584827191501256,-0.18086381957023392,1
-0.7637636091796814,-0.9529188308984049,-1.248138067065783,0.4063016520545564,0.8847436549085146,0
0.5015603994205752,0.4475218350313147,-1.0925081868364739,1.839624626273512,0.3509330450701336,1
0.30124525294032334,0.20325892818310767,-0.9757857766644912,-1.0697714212619565,0.6463658013874533,1
1.019041194494558,0.7894899046188039,1.4753848369471287,1.606012860277288,0.8249353632503665,0
0.5082375709699171,0.7243531294592824,-0.11982143540329107,-1.1187554643117514,0.3892228840555374,1
-1.4348193498885236,-1.6694233576531445,-1.1314156568938014,-0.30935500910046043,0.2832367627449472,0
0.5816864580126753,0.6755005480896408,0.30816073522730925,1.981768327267755,0.5164229624336806,0
1.5064747175965036,1.3431524934747394,-0.6256185461485457,-0.25247296303284233,0.13573986933237103,1
-0.03595191030143346,-0.12242494761450172,-0.19763637551794613,-1.1187554643117514,-0.49933633291618795,1
0.05085131984000861,0.17069054060334696,0.8139578459725642,-0.3021394149930495,-0.32911605946328504,0
-0.045967667625445865,0.07298537786406369,0.11362338494067267,-1.3277232594373092,-0.5603544290445391,0
-0.9273543121385532,-1.0180556060579264,-0.9368783066071648,-0.2854134006085046,0.7703675800638599,0
1.3528997719616442,1.2942999121050978,1.2419400166031647,0.24798141452870257,-1.228890658122526,0
0.027481219417312384,0.23582731576286836,-0.7034334862632008,-1.2447699277396904,0.32146896944546055,0
-1.585055709748713,-1.7182759390227862,-0.6645260162058731,-1.1187554643117514,-1.0525144259758576,0
-0.029274738752091547,-0.18756172277402314,-0.9757857766644912,1.0154330660244089,-0.6549447632994059,0
0.10426869223474206,0.2521115095527493,0.3859756753419636,-1.1762733767173916,-0.825673899654273,0
0.7319228178728642,0.8709108735682062,-0.35326625574725506,-0.2647405753829878,-0.03922841146868,1
-1.1410238017174887,-1.1483291563769704,-0.1587289054606187,-1.0275524697301557,-1.413819545832263,0
-0.6602674501648841,-0.692371730260317,-1.0146932467218188,0.5328841459942808,-0.825673899654273,0
0.1343159642067802,0.5126586101908361,0.15253085499800056,-1.1762733767173916,-0.825673899654273,0
-1.257874303830968,-1.2786027066960137,-0.4310811958619091,0.5814119328389848,0.17497319354045682,0
0.0441741482906667,0.4638060288211945,1.2419400166031647,-0.30935500910046043,-0.48977818939218065,0
1.2660965418202021,1.1314579742062931,1.981181947692383,0.811059543672289,0.8703297482068939,0
1.3462226004123024,1.1640263617860538,-0.8979708365498371,1.2641593419168078,0.5942597488812308,1
-0.717023408334289,-0.9692030246882848,-1.2870455371231102,-0.9584827191501256,0.5188317371298173,1
-0.2696529145283939,-0.12242494761450172,-0.1587289054606187,-1.0697714212619565,0.13573986933237103,0
-0.7070076510102766,-0.7737926992097194,-0.5478036060338917,-1.1187554643117514,0.3892228840555374,0
-0.2763300860777358,-0.18756172277402314,-0.7812484263778549,-1.3277232594373092,0.6243911935844265,0
-0.717023408334289,-1.0343397998478072,-1.0536007167791464,1.105632853850986,0.06483698703221888,1
0.18773333660151365,0.4149534474515528,-0.1587289054606187,-0.2756510596464944,0.9051124296105307,1
0.8020331191409519,0.7569215170390432,-0.35326625574725506,-0.22275850878342643,0.14366342795125064,1
1.5999551192872876,1.8805308885407939,3.2262209895268574,-1.1187554643117514,-0.16395520900412927,0
-0.05264483917478777,-0.20384591656390405,-1.1314156568938014,0.4980713189641841,0.14745470494356025,1
0.5249304998432704,0.31724828471227073,-0.4699886659192368,-1.1187554643117514,-1.3878955498879133,0
-0.3597947304445074,-0.23641430414366477,-0.4699886659192368,-1.0697714212619565,-0.994051214560352,0
-0.5901571488967964,-0.3015510793031862,0.03580844482601786,2.640405597133477,1.025304614722621,0
-0.08936928269616783,0.15440634681346602,0.6972354358005824,0.19813173413641946,0.5979383635655893,1
-0.12943231199221744,-0.43182462962223017,-1.0925081868364739,-0.2756510596464944,0.9051124296105307,1
-0.7737793665036938,-0.41554043583234923,0.8139578459725642,-0.22275850878342973,0.14366342795125064,1
-0.24294422833102716,-0.39925624204246946,-0.8590633664925097,0.02535956005481947,0.6436278346045382,0
-0.37314907354319027,-0.692371730260317,-1.2092305970084551,0.06543481610485588,-0.9866356146489768,1
0.3613397968843987,0.39866925366167305,0.34706820528463667,0.3000805015968256,0.9147871524479141,1
1.3328682573136195,1.0663211990467716,0.9695877262018738,-1.0697714212619565,0.6463658013874533,0
-1.5883942955233834,-1.7019917452329059,-0.8201558964351823,0.94073383327142,0.36703878807470175,0
-0.03929049607610488,0.23582731576286836,0.658327965743255,-1.1187554643117514,0.3892228840555374,1
-0.8939684543918446,-0.7900768929996003,-0.4699886659192368,1.4547444837457928,-1.5944068614890141,0
1.1091830104106715,1.1314579742062931,1.7866445974057465,0.28528698455724594,0.909076890919322,1
-1.3413389481977396,-1.6042865824936232,-1.1703231269511278,-0.3021394149930495,0.9147871524479079,1
-1.6618431825661426,-1.8322652955519492,-1.0925081868364739,-1.1762733767173916,0.14366342795125064,1
-0.8438896677717816,-0.7900768929996003,0.11362338494067267,-0.18350541791655345,-0.5603544290445391,0
0.6250880730833963,0.6755005480896408,-0.042006495288636245,-0.20457188999354609,0.7239263181399272,1
0.5850250437873468,0.7569215170390432,0.191438325055327,1.1025854427863535,0.14745470494356025,0
-0.2529599856550396,-0.15499333519426242,-1.0146932467218188,-1.0275524697301557,0.4349242397253172,0
0.9556080647758122,0.9523318425176085,0.30816073522730925,1.930517148945779,0.6368075304808831,1
-1.7853708562289643,-1.8974020707114712,-0.8201558964351823,-0.4671547364217679,0.07067202336381008,1
0.5149147425192581,0.4475218350313147,-0.39217372580458176,1.077763450520702,-0.22383337626881064,0
-0.4132121028392408,-0.1387091414043815,0.11362338494067267,0.6822548555398739,0.9291547490989821,0
-0.623543006643505,-0.5620981799412741,-0.5088961359765642,-1.0697714212619565,0.3367832254686306,0
1.9371522825290444,1.5222786251634237,0.03580844482601786,-0.9907872105969641,-1.2629242446909494,1
0.564993529139321,0.7406373232491622,1.0474026663165281,-0.18350541791655345,-1.0075292609272835,0
1.4129943159057197,1.3594366872646202,1.3975698968324735,-1.1187554643117514,-1.0525144259758576,1
0.428111512377816,0.6103637729301193,1.9422744776350558,1.1284755386096608,0.9949199689849134,0
0.5883636295620173,0.5777953853503576,2.097904357864365,0.3414797805288508,0.2892924971118314,1
0.751954332520889,0.887195067358086,1.864459537520401,0.28528698455724183,-0.6141674810322076,1
0.21110343702420986,0.5615111915604778,0.9306802561445464,1.4214699047496457,0.975688297444636,1
1.0257183660439,1.1314579742062931,-0.39217372580458176,-1.0697714212619565,-1.6541716205164616,0
0.6851826170274726,0.9360476487277276,0.15253085499800056,0.3000805015968256,0.6616209418654243,0
1.2827894706935565,1.1640263617860538,0.23034579511265443,-0.860803626136406,0.8881112730813938,1
-0.43658220326193703,-0.3829720482525885,0.3859756753419636,-0.2854134006085046,0.3554840102691091,1
-1.4848981365085872,-1.6368549700733839,-0.8201558964351823,0.3540591897208905,-0.11608142022899098,0
2.2476407595734345,1.7665415320116309,0.03580844482601786,1.471370608312809,-0.36901077778183783,1
1.4697502740751245,1.147742167996174,1.6310147171764373,-0.31593798731699807,0.5828253324225929,1
-0.8739369397438197,-1.0343397998478072,-0.9757857766644912,0.14413687250849555,0.738624715397805,0
-1.6084258101714086,-1.7508443266025469,-1.2092305970084551,0.6334801722915546,-0.1076092944260117,0
0.21778060857355178,0.34981667229203145,0.5026980855139458,-0.22275850878342973,-0.825673899654273,0
-0.34310180157115305,-0.4481088234121111,-0.7034334862632008,0.2627539116599183,0.7348980931359714,0
0.05085131984000861,0.34981667229203145,-0.11982143540329107,0.9771563591514875,0.1749731935404507,1
0.5583163575899791,0.7080689356694015,1.9422744776350558,0.39234744842996555,0.9462385675175224,0
-0.940708655237237,-0.7249401178400788,-0.4310811958619091,1.962974875775498,0.645172262868216,1
-0.9674173414346038,-0.8063610867894812,0.07471591488334527,2.1748327296269347,0.5072669774395915,0
0.3913870688564368,0.6917847418795205,0.2692532651699818,0.4980713189641841,-1.950728736571497,0
0.18105616505217265,0.5777953853503576,1.2808474866604922,0.014768152006437012,0.6243911935844265,1
-1.0675749146747295,-0.9529188308984049,-0.6645260162058731,-0.2524729630328498,-2.1238422984530736,0
1.6133094623859714,1.3757208810545,1.2419400166031647,-0.18350541791655345,-1.4547040928100263,1
-0.2796686718524063,-0.5132455985716325,-1.3648604772377644,0.4980713189641841,0.10942482611926796,0
0.31793818181367767,0.1381221530235851,-0.8590633664925097,-0.860803626136406,0.8546044996284957,1
1.2660965418202021,1.0988895866265322,2.4091641183229844,1.6390422471773343,1.0197002496829823,0
-0.44325937481127897,-0.3829720482525885,-0.19763637551794613,-0.23858789391117072,-2.991585206645426,0
0.3580012111097282,0.4149534474515528,-0.19763637551794613,-0.22275850878342973,-0.09393326566432841,1
-1.3413389481977396,-1.2297501253263727,0.23034579511265443,-1.3277232594373092,0.17721636170168514,0
-0.10940079734419264,-0.089856560034741,-0.5088961359765642,-1.0275524697301557,-0.03922841146868,0
-1.2111341029855767,-1.294886900485894,-0.5867110760912183,0.8348628324203001,1.0100100541645307,0
-0.8004880527010606,-0.692371730260317,-0.7423409563205282,-1.1762733767173916,-0.825673899654273,1
-1.6651817683408137,-1.8811178769215908,-1.3648604772377644,-0.20457188999354609,-0.7448020909206114,0
-0.21289695635898903,-0.31783527309306714,-0.9368783066071648,0.22892765150241084,0.425526235757022,1
-1.5416540946779915,-1.6531391638632642,-0.8590633664925097,-0.2524729630328498,-3.822374962707316,0
1.0357341233679123,0.9523318425176085,0.5026980855139458,2.6597957076485312,0.4434567523718458,1
1.4764274456244664,1.1965947493658156,-0.35326625574725506,-0.2941967980937935,-0.6889846941422157,0
-1.865496914821065,-1.995107233450754,-0.5867110760912183,-0.30935500910046043,0.2832367627449472,0
-0.8806141112931617,-0.9692030246882848,-0.9368783066071648,-0.3564192115971587,0.3082467106924795,0
0.3680169684337406,0.39866925366167305,2.17571929797902,-0.9907872105969641,-1.4957345902512593,0
0.3513240395603863,0.5126586101908361,-0.35326625574725506,-1.3277232594373092,-1.0075292609272835,0
0.5115761567445876,0.7080689356694015,0.9306802561445464,-0.3021394149930495,0.29283554649231375,1
0.9489308932264703,0.9849002300973693,-0.39217372580458176,-0.22275850878342973,-0.825673899654273,0
-0.44659796058594947,-0.4643930172019909,-1.2092305970084551,0.8452415503806574,0.4430315341572034,0
-0.8672597681944778,-0.8063610867894812,0.03580844482601786,0.8356261477525915,0.32146896944546055,1
-0.37982624509253216,-0.4481088234121111,-0.8590633664925097,0.4676768956300588,0.5849528007296118,0
0.7820016044929271,0.887195067358086,0.9306802561445464,-1.1187554643117514,-2.2764547668596418,0
-0.5133696760793667,-0.43182462962223017,-0.19763637551794613,0.5384319401294558,0.22579100477363184,1
-1.5917328812980545,-1.6531391638632642,0.30816073522730925,-0.2756510596464944,-0.5165823175442315,1
0.7052141316754974,0.773205710828923,0.9695877262018738,2.089666450168472,-0.639075492245603,0
0.8888363492823949,0.9197634549378478,0.658327965743255,0.4435847550822493,0.909076890919322,1
-1.9723316596105327,-2.109096589979917,-0.39217372580458176,0.8266848735977484,-0.44410125382253846,1
0.17104040772815932,0.3009640909223898,-1.0925081868364739,-0.2756510596464944,-0.6908198928623227,0
-0.7637636091796814,-0.5132455985716325,0.03580844482601786,-0.3021394149930495,0.4008037776430566,0
-0.7403935087569852,-0.708655924050198,-0.6645260162058731,0.3397735484391774,0.909076890919322,0
0.8020331191409519,0.9523318425176085,0.2692532651699818,-0.18350541791655345,-1.0075292609272835,0
0.8921749350570654,0.9686160363074884,-0.23654384557527283,0.4394850913039803,-0.5520768711135691,1
0.11762303533342587,0.4475218350313147,1.0474026663165281,1.4392174517728324,0.8830693553181035,1
-0.03929049607610488,0.31724828471227073,0.7750503759152372,0.0779681399420573,-0.19432033364568374,1
0.6651511023794469,0.8057740984086847,2.2535342380936747,-0.9907872105969641,0.020027480715057576,0
-0.7537478518556682,-0.9854872184781657,-1.3648604772377644,0.10267970433745444,0.5867918813367354,1
0.10426869223474206,0.31724828471227073,-0.35326625574725506,-0.3021394149930495,1.0599851318796516,1
-1.3246460193243854,-1.3437394818555357,-0.35326625574725506,-0.18350541791655345,0.6243911935844265,0
1.566569261540579,1.2780157183152179,0.4637906154566184,-0.2756510596464944,-0.10953439666583477,1
0.6184109015340553,0.6917847418795205,-0.5088961359765642,0.977156359151495,0.8335101880816776,1
0.5082375709699171,0.8220582921985645,-0.35326625574725506,0.564825495196261,0.3367832254686306,1
-1.5416540946779915,-1.6205707762835035,-0.4310811958619091,-1.3277232594373092,0.17721636170168514,0
1.3629155292856567,1.3105841058949785,1.7866445974057465,0.3040870406098699,-0.267187316480091,0
2.120774500135942,1.9293834699104355,1.7866445974057465,-0.23858789391117072,-0.16395520900412927,0
-0.7837951238277062,-0.7249401178400788,-0.5867110760912183,1.2250530996619342,0.7702605937255085,0
-1.2879215758030063,-1.425160450804938,-1.1703231269511278,-0.25247296303284644,-0.6844686386415293,0
-0.05264483917478777,-0.089856560034741,-0.8590633664925097,1.0607252364747348,-2.6831937436247015,1
-0.34977897312049405,-0.20384591656390405,-0.2754513156326002,2.1396517832682536,0.895454299235851,1
-1.3346617766483986,-1.3763078694352964,-0.8201558964351823,1.4848849427833608,0.9724563362532429,0
-1.6217801532700922,-1.5880023887037427,-0.19763637551794613,-0.20457188999354609,0.32146896944546055,0
0.18105616505217265,0.5615111915604778,0.3859756753419636,-0.2524729630328498,-1.5046771466154296,1
-1.0074803707306543,-1.13204496258709,-0.6645260162058731,-1.2447699277396904,0.3214689694454575,1
-1.1543781448161716,-1.0017714122680466,0.03580844482601786,0.8898011083794143,0.1474547049435572,0
1.292805228017569,1.3594366872646202,-0.35326625574725506,0.38765591793312043,0.7703675800638599,1
0.09425293491072965,0.4475218350313147,0.4637906154566184,0.27835515017159224,0.7866561179138094,0
-1.1577167305908422,-1.246034319116253,-0.9368783066071648,0.04412597555670916,-0.9140115433230621,0
0.7152298889995098,0.7569215170390432,2.0200894177497104,-0.2524729630328498,0.3367832254686306,1
1.1158601819600134,1.1151737804164132,1.7088296572910917,-1.1762733767173916,0.5095337449462183,1
-0.22958988523234333,-0.1387091414043815,-0.0030990252313095523,-0.2647405753829878,0.909076890919322,0
-0.6602674501648841,-0.8389294743692419,-0.8590633664925097,-0.3192271392649234,0.6216073561375575,0
-0.940708655237237,-0.9529188308984049,-0.8201558964351823,-0.2524729630328498,0.3367832254686306,1
-0.0025660525547248282,0.0567011840741839,0.07471591488334527,2.46404952601996,-0.5624712453937313,0
-0.22291271368300142,-0.17127752898414333,-0.6256185461485457,-0.2647405753829845,0.4349242397253218,0
-0.4232278601632532,0.024132796494422053,1.0474026663165281,-1.0275524697301557,0.4349242397253218,1
0.37803272575775304,0.31724828471227073,0.5416055555712732,-0.1623493773019882,-0.3652060678306068,1
-0.2930230149510901,0.08926957165394461,1.2808474866604922,-1.2447699277396904,-4.346072620713295,0
-0.2963616007257606,-0.18756172277402314,-0.1587289054606187,-1.3277232594373092,0.6243911935844265,0
1.0724585668892923,1.2780157183152179,0.07471591488334527,-0.20457188999354609,0.7239263181399304,0
-0.6969918936862641,-0.8226452805793609,-0.8590633664925097,-1.0697714212619565,-0.4834252825052698,0
1.322852499989606,1.2128789431556954,-0.8590633664925097,-0.2524729630328498,0.13573986933237409,1
-0.26297574297905196,0.007848602704542263,0.23034579511265443,-1.1187554643117514,0.7246040079675976,1
0.5683321149139924,0.9360476487277276,0.191438325055327,-0.22275850878342973,0.5095337449462183,0
0.08089859181204676,0.23582731576286836,0.424883145399291,-1.3277232594373092,-1.0075292609272835,1
-1.4481736929872076,-1.3925920632251767,0.191438325055327,1.6466305018858005,0.7253478309897794,1
-0.5868185631221259,-0.7412243116299586,-0.9368783066071648,-0.20457188999354609,-1.8110731512866818,0
0.8120488764649653,0.6592163542997599,-0.9757857766644912,1.2568722705895417,0.3886618034895718,0
0.3446468680110444,0.528942803980717,-0.11982143540329107,-0.22275850878342973,0.14366342795125064,0
-1.5416540946779915,-1.6694233576531445,-0.8590633664925097,0.3414797805288475,0.8335101880816745,0
-1.077590671998742,-0.8226452805793609,-0.1587289054606187,-1.3277232594373092,-2.639449715438995,0
1.069119981114621,1.0826053928366526,0.30816073522730925,0.5384319401294632,0.4913164894422709,1
-0.30971594382444445,-0.4643930172019909,-1.0146932467218188,-0.2854134006085046,-0.5957473893649847,0
1.5098133033711751,1.4082892686342607,0.6194204956859276,-0.3355960770258145,0.9147871524479079,1
-1.0709135004494001,-1.1646133501668507,-0.6256185461485457,1.731730633110238,-0.7021073485212534,0
-0.22958988523234333,-0.04100397866509937,-0.23654384557527283,0.9639459073650133,0.5942597488812308,1
-1.0809292577734124,-1.115760768797209,-0.35326625574725506,0.57180138337363,-0.05117539120453068,1
2.2910423746441557,1.9130992761205545,1.9422744776350558,-0.2854134006085046,-2.6831937436247015,1
-1.718599140735547,-1.7508443266025469,-0.7034334862632008,-1.1762733767173916,0.5095337449462183,1
0.03749697674132572,0.31724828471227073,-0.19763637551794613,-0.2756510596464944,0.2883323798447051,0
-0.5033539187553543,-0.39925624204246946,-0.5478036060338917,-1.1187554643117514,0.7246040079675976,1
1.6934355209780716,1.392005074844381,0.891772786087219,0.3000805015968256,0.7695891730161702,1
-1.6084258101714086,-1.6531391638632642,-0.8979708365498371,1.9967358468724745,0.22412200572101781,0
-0.810503810025073,-0.9203504433186442,-0.6645260162058731,0.925536911438904,0.5220831132244828,0
2.1675147009813345,1.8805308885407939,1.4364773668898012,-0.25247296303284233,0.9559483773062729,1
-1.3179688477750444,-1.2134659315364924,0.424883145399291,-1.3277232594373092,-1.0075292609272835,0
0.06086707716402102,0.08926957165394461,-0.7812484263778549,0.7182307530094888,-0.6958870997358361,0
-1.2378427891829433,-1.2623185129061334,-0.7812484263778549,0.9771563591514875,-0.21550546038401738,0
0.8754820061837111,0.9523318425176085,0.658327965743255,-0.9907872105969641,0.020027480715057576,1
-0.0059046383293962475,-0.1387091414043815,-0.7423409563205282,0.6871173262061188,0.9058647650801894,0
1.7334985502741223,1.636267981692588,2.097904357864365,0.3414797805288475,-1.2848842412081356,0
-1.892205601018432,-2.060244008610276,-0.9757857766644912,0.706721370610689,-0.2099782501162891,0
0.4614973701245246,0.6103637729301193,-0.4699886659192368,0.6188999079565543,-0.07594984888079996,1
-0.6302201781928469,-0.708655924050198,-0.5867110760912183,-0.9298733767164328,-0.32982476395539506,1
1.0791357384386333,1.0988895866265322,-0.23654384557527283,1.327273873688697,0.8132823683978458,1
1.7935930942181975,1.4245734624241417,-0.7423409563205282,0.1473636519860652,0.03112495230335968,1
1.0524270522412666,0.887195067358086,-0.7423409563205282,0.8688437561539316,0.4008037776430566,1
-0.5667870484741001,-0.4481088234121111,-0.2754513156326002,-1.1187554643117514,-2.991585206645426,0
-0.5033539187553543,-0.39925624204246946,0.30816073522730925,-1.1762733767173916,0.5095337449462183,0
-1.314630262000373,-1.4414446445948184,-0.7034334862632008,0.8356261477525991,-0.34234474222614314,0
-0.8772755255184902,-0.9529188308984049,-0.8201558964351823,0.20956497175801325,-0.21550546038401738,0
-1.7553235842569266,-1.8159811017620688,-0.5867110760912183,1.154621242254455,-3.8025142863014914,1
-0.19954261326030612,-0.2852668855133064,-0.7423409563205282,1.351059376597304,0.39395555469999816,0
1.5565535042165666,1.4082892686342607,1.59210724711911,-1.1187554643117514,-0.5437045248778608,1
1.4330258305537444,1.1151737804164132,0.7361429058579098,-1.2447699277396904,-0.08098837924900924,1
1.2093405836507973,1.1640263617860538,1.2030325465458374,1.5045203347765717,-0.046371054239687806,1
-0.5267240191780496,-0.2689826917234255,0.15253085499800056,-0.9043593315829156,-1.2311166768686534,1
0.10426869223474206,-0.024719784875218448,-0.7423409563205282,0.09834815492917041,0.7355452419693104,0
1.1525846254813925,1.3594366872646202,2.486979058437638,-1.1762733767173916,0.14366342795125064,1
0.04751273406533812,0.3009640909223898,0.658327965743255,0.38765591793312043,0.9337153069245666,1
0.3646783826590692,0.36610086608191234,-0.5088961359765642,-0.2941967980937935,0.4430315341572034,0
1.0724585668892923,0.903479261147967,1.6310147171764373,1.4592868736772315,0.5337927488322177,0
1.4864432029484789,1.3105841058949785,-0.11982143540329107,-1.1187554643117514,0.3892228840555374,1
1.703451278302085,1.4734260437937834,-0.31435878568992764,1.4346378964999438,-0.6958870997358361,1
0.0208040478679714,0.23582731576286836,-0.1587289054606187,-0.22275850878342973,-0.09393326566432841,0
0.6551353450554345,0.8220582921985645,-0.11982143540329107,-0.9298733767164328,-0.574665390570838,0
0.3112610102643358,0.5940795791402385,0.891772786087219,1.8751837276284418,0.6769190355193884,0
-0.3764876593178617,-0.10614075382462079,-0.5478036060338917,0.3000805015968256,-0.046371054239687806,1
-0.8839526970678322,-1.0994765750073288,-1.1314156568938014,-1.2447699277396904,-2.2135304999811516,1
-0.26297574297905196,-0.2526984979335457,-0.5867110760912183,0.3414797805288475,0.6797711510363041,1
-1.3914177348178025,-1.5554340011239816,-0.8979708365498371,-0.22275850878342973,-1.4291409102648212,0
1.2594193702708603,1.261731524525337,-0.31435878568992764,1.6764986963553916,0.7164171373735376,0
-0.029274738752091547,0.0567011840741839,-0.7034334862632008,1.471370608312813,0.8621399849364537,1
-1.7319534838342303,-1.7508443266025469,-0.9757857766644912,0.8304952232754652,-0.04227726714460083,0
-0.8238581531237568,-0.9529188308984049,-0.5088961359765642,-1.0275524697301557,0.14745470494356025,1
-1.3413389481977396,-1.3925920632251767,-0.6256185461485457,0.4394850913039803,0.2883323798447051,0
-1.2311656176336014,-1.1971817377466114,-0.7034334862632008,0.33281440328005923,0.9051124296105307,0
0.9055292781557492,0.8709108735682062,1.4364773668898012,3.878710920389806,0.854526447775896,1
0.8955135208317369,0.8546266797783253,0.658327965743255,-1.2447699277396904,-2.4748868629582854,1
0.29456808139098145,0.43123764124143377,2.3313491782083298,2.178984463449577,0.9969771183221071,1
0.6451195877314221,0.7243531294592824,-0.1587289054606187,-0.20457188999354609,0.32146896944546055,1
1.2594193702708603,1.0826053928366526,-0.6645260162058731,0.2627539116599183,0.8724540736502504,1
1.162600382805405,0.9849002300973693,-0.11982143540329107,-1.2447699277396904,0.32146896944546055,1
-0.5667870484741001,-0.3015510793031862,0.7750503759152372,-0.30935500910046043,1.0100100541645307,1
-0.10272362579485073,0.2521115095527493,-0.2754513156326002,-1.1762733767173916,0.5095337449462183,1
-1.0542205715760458,-1.1646133501668507,-1.0536007167791464,1.1191753746740887,0.11946259597215193,0
0.8153874622396358,0.8383424859884455,-0.6645260162058731,-1.3277232594373092,-0.5603544290445391,0
1.33620684308829,1.0500370052568906,1.59210724711911,0.5607672150315814,0.12140483144791976,1
-0.0693377680481421,0.007848602704542263,-0.4310811958619091,0.9210507330703235,-0.18086381957023087,0
0.8254032195636481,0.8057740984086847,-1.0146932467218188,-0.9584827191501256,-0.8472832322990257,1
-2.2995130655282767,-2.4999172409370476,-1.4426754173524192,0.17631385679335984,-0.9016370158139707,0
1.9505066256277284,1.4571418500039024,1.3975698968324735,-1.2447699277396904,0.7239263181399304,0
0.7352614036475347,0.6592163542997599,-0.5478036060338917,0.925536911438904,0.5630383673429515,1
0.9122064497050911,0.887195067358086,2.3702566482656566,-0.2524729630328498,0.13573986933237409,1
1.0457498806919248,0.903479261147967,0.7750503759152372,0.33235162889085934,-0.21479796070491736,0
-0.5100310903046962,-0.5295297923615134,-1.0925081868364739,0.304087040609874,-1.0794633480666884,0
0.0208040478679714,0.23582731576286836,0.03580844482601786,-0.23858789391117072,0.1714259149079248,1
-0.4699680610086457,-0.334119466882948,-0.19763637551794613,0.501229615811827,0.8522579166922102,0
-0.15947958396425557,0.20325892818310767,-0.0030990252313095523,-0.23858789391117072,0.7246040079675915,0
1.1325531108333677,1.0826053928366526,-0.2754513156326002,-0.2854134006085046,0.5188317371298173,1
1.112521596185342,1.0663211990467716,-0.7812484263778549,0.05902766651550503,0.33399523472094506,1
-0.6402359355168593,-0.39925624204246946,0.15253085499800056,-0.22275850878342973,-0.45980358265929916,0
1.4563959309764407,1.3594366872646202,1.5531997770617825,-1.1187554643117514,-2.6562040827333715,1
-1.1543781448161716,-1.2297501253263727,-0.8201558964351823,-1.1187554643117514,-1.0525144259758576,0
1.0657813953399504,0.9360476487277276,0.15253085499800056,0.8356261477525991,0.32146896944546055,1
-0.23960564255635575,-0.04100397866509937,-0.042006495288636245,0.6694707111271637,0.1356503112544859,1
0.29456808139098145,0.7080689356694015,1.3975698968324735,0.19813173413641946,0.7642314675372405,0
-0.8572440108704654,-1.066908187427568,-1.1703231269511278,1.5045203347765717,0.29283554649231375,0
0.5149147425192581,0.5940795791402385,2.4091641183229844,-0.18350541791655345,-1.4547040928100263,0
0.19441050815085553,0.4475218350313147,-0.5088961359765642,-0.9298733767164328,0.3287122305858288,0
-0.7971494669263901,-0.6109507613109157,-0.35326625574725506,-0.23858789391117072,1.0599851318796516,0
0.8354189768876605,0.9849002300973693,0.8139578459725642,1.0976517404424615,0.8522579166922102,1
-1.0876064293227545,-0.9203504433186442,-0.4310811958619091,-0.2854134006085046,0.7703675800638599,1
1.2460650271721765,1.147742167996174,1.4753848369471287,-1.1187554643117514,-0.49933633291618795,1
0.9522694790011408,1.0663211990467716,-0.1587289054606187,-0.2941967980937935,-0.06176642333864539,1
1.4096557301310493,1.0826053928366526,-0.19763637551794613,-0.20457188999354609,0.32146896944546055,1
0.09759152068540107,0.5452269977705968,0.7750503759152372,-1.0275524697301557,0.14745470494356025,1
-0.22958988523234333,0.07298537786406369,0.2692532651699818,1.4245449136033543,-2.9677962326049343,0
-0.9206771405892112,-0.692371730260317,-0.39217372580458176,-0.23858789391117072,0.3892228840555374,0
-1.2845829900283356,-1.3763078694352964,-1.0536007167791464,-0.32196728473664893,0.4481297000745686,0
0.8955135208317369,0.8709108735682062,0.4637906154566184,-0.20457188999354609,-0.7448020909206099,1
-0.04930625340011728,-0.31783527309306714,-1.248138067065783,1.154621242254455,0.4625699551627949,1
1.0157026087198875,0.9686160363074884,-0.1587289054606187,-1.1762733767173916,-0.825673899654273,1
-0.43324361748726564,-0.4481088234121111,-0.9368783066071648,0.2627539116599183,0.6326124004668409,0
0.04083556251599621,0.04041699028430298,-1.1703231269511278,-0.3021394149930495,0.29283554649231375,1
-0.31639311537378634,-0.39925624204246946,-0.7812484263778549,1.4185995105300375,0.8752314493054945,0
-0.04930625340011728,0.1381221530235851,1.8255520674630739,1.721353233337736,0.9051124296105307,1
1.019041194494558,1.0988895866265322,1.7477371273484192,0.22892765150241084,0.6267549101042584,1
1.019041194494558,1.147742167996174,1.3197549567178195,-1.0275524697301557,0.6216073561375575,1
-0.5768028057981126,-0.692371730260317,-0.6645260162058731,-0.8420663036097207,0.6397760565957434,0
-1.4915753080579286,-1.5717181949138619,-0.9757857766644912,-0.23858789391117072,0.1714259149079248,0
-0.8505668393211235,-0.936634637108524,-0.7812484263778549,1.964883448342997,0.46173682153039597,0
0.7352614036475347,0.7406373232491622,1.3197549567178195,-1.3277232594373092,-1.0075292609272835,0
0.1309773784321097,-0.10614075382462079,-1.0925081868364739,-0.3021394149930495,0.6616209418654243,0
0.8587890773103568,0.887195067358086,2.097904357864365,0.8452415503806574,0.6797711510363041,1
0.8254032195636481,0.887195067358086,1.3197549567178195,-0.23858789391117072,0.3892228840555374,1
-0.2663143287537234,-0.024719784875218448,-0.7812484263778549,-0.2524729630328498,0.6463658013874533,1
0.5182533282939294,0.6755005480896408,-0.39217372580458176,-1.2447699277396904,0.3214689694454575,1
1.1292145250586962,1.0988895866265322,-0.4310811958619091,1.149650087119971,-0.3748860627227082,0
-0.08269211114682591,0.1381221530235851,2.4480715883803112,-0.2524729630328498,-0.21479796070491736,1
0.03749697674132572,0.1381221530235851,-0.7423409563205282,-1.1187554643117514,0.1714259149079248,0
-0.2696529145283939,-0.6435191488906765,-1.1703231269511278,-0.2941967980937935,0.17497319354045682,1
0.564993529139321,0.5615111915604778,-0.4699886659192368,-1.0697714212619565,-1.1950945706966116,1
0.14767030730546402,0.39866925366167305,0.07471591488334527,-0.2756510596464944,0.46256995516279187,1
-0.169495341288268,-0.31783527309306714,-0.7034334862632008,-1.2447699277396904,0.32146896944546055,1
0.6684896881541184,0.7406373232491622,-0.5088961359765642,0.3000805015968256,0.29283554649231064,1
-0.4198892743885827,-0.15499333519426242,0.03580844482601786,-1.2447699277396904,-1.1472594396150797,1
0.5349462571672837,0.7569215170390432,-0.0030990252313095523,1.220772023312421,0.46365959882741203,1
0.882159177733053,0.887195067358086,0.3859756753419636,-0.2854134006085046,0.60701985320315,1
0.4514816128005122,0.7243531294592824,1.2808474866604922,1.4865517443896261,1.0192605172445226,0
-0.0693377680481421,0.15440634681346602,2.214626768036348,-0.20457188999354609,0.32146896944546055,0
-0.3597947304445074,-0.3829720482525885,-1.0536007167791464,0.4394850913039803,0.15877050246381125,0
0.31793818181367767,0.6429321605098801,0.424883145399291,-0.2854134006085046,-3.001281874501253,0
-0.5066925045300248,-0.4969614047817516,-0.35326625574725506,0.024895704880968303,0.6973097464906478,0
0.1343159642067802,0.34981667229203145,-0.1587289054606187,0.641579676489415,-0.16395520900413388,0
0.2444892947709185,0.2683957033426291,0.34706820528463667,-1.1187554643117514,-0.16395520900413388,0
1.3495611861869738,1.3105841058949785,2.1368118279216923,1.9241472371642654,0.4342080491041131,0
-1.394756320592474,-1.4740130321745792,-1.0146932467218188,0.8304952232754652,0.8949804217042461,0
1.3328682573136195,1.0988895866265322,-0.08091396534596365,-0.9584827191501256,-0.18086381957023087,1
-0.5000153329806829,-0.6109507613109157,-0.9757857766644912,1.8674836093374525,-1.0075292609272835,1
-0.5500941196007458,-0.36668785446270874,-0.31435878568992764,-0.20457188999354609,-1.4086158025922135,1
-0.11607796889353454,0.31724828471227073,2.8371462889535843,-0.32748023301735424,0.7703675800638599,1
0.12430020688276779,0.0567011840741839,-0.7812484263778549,-1.0275524697301557,0.14745470494356025,0
-1.451512278761878,-1.5228656135442207,-0.7034334862632008,0.4394850913039803,0.7308748542924409,0
-0.6836375505875804,-0.708655924050198,-0.8979708365498371,-0.2854134006085046,-1.3170787741958572,1
0.3813713115324235,0.6266479667199991,0.03580844482601786,1.423361586594589,0.6959047042877871,1
0.33129252491236055,0.5940795791402385,0.2692532651699818,-1.1187554643117514,-1.7676448657616448,1
-0.9640787556599323,-0.7412243116299586,-0.35326625574725506,0.22892765150241084,-1.2116555261912687,0
-0.8605825966451359,-0.8877820557388835,-0.6645260162058731,0.6219189935437214,0.2340348055099414,0
-0.2930230149510901,-0.10614075382462079,-0.0030990252313095523,-1.3277232594373092,0.6243911935844265,0
2.1975619729533715,1.6688363692723487,-0.1587289054606187,2.183664012314723,0.7122940229527711,1
1.5532149184418962,1.261731524525337,-0.2754513156326002,-0.32196728473664893,0.9812310766079436,1
0.5917022153366877,0.4475218350313147,-1.0925081868364739,-0.2756510596464944,-0.10953439666583477,1
1.1459074539320506,1.0988895866265322,1.6699221872337644,-0.2647405753829878,0.4349242397253172,1
-0.25963715720438146,-0.2852668855133064,-0.8590633664925097,-1.1762733767173916,0.5095337449462183,0
-0.847228253546453,-1.0994765750073288,-0.8979708365498371,0.8304952232754652,0.8949804217042461,0
-0.2830072576270777,-0.39925624204246946,-1.248138067065783,-0.009975065905173733,0.37057520830067775,1
-1.0876064293227545,-0.9529188308984049,-0.0030990252313095523,-0.3119351914445476,0.3892228840555374,0
0.22111919434822228,0.5126586101908361,-0.35326625574725506,0.3414797805288475,0.4430315341572034,0
0.8287418053383195,0.9360476487277276,2.1368118279216923,1.233959681095079,0.6554878569881009,0
1.112521596185342,0.9686160363074884,-0.7423409563205282,-0.2647405753829878,0.14745470494356025,1
-1.0709135004494001,-1.066908187427568,-0.7423409563205282,-0.9298733767164328,0.5654518474649279,0
0.3880484830817654,0.6429321605098801,0.15253085499800056,-1.2447699277396904,-0.7448020909206114,0
-0.853905425095794,-0.9203504433186442,-0.8979708365498371,-0.2756510596464944,0.6368075304808831,1
-0.4198892743885827,-0.3504036606728278,-0.6645260162058731,-0.33946600492994944,0.8724540736502504,0
0.4781902989978789,0.5777953853503576,1.864459537520401,-0.18350541791655345,-1.007529260927282,0
-1.9122371156664568,-2.3045069154584823,-1.325953007180438,-0.3373489142384843,0.4315690806868376,0
-0.7437320945316557,-0.9203504433186442,-1.0536007167791464,0.2627539116599183,0.18095107007581973,0
1.6266638054846543,1.4734260437937834,1.864459537520401,-0.053403131694288064,-0.9591247919919688,1
0.08089859181204676,0.3335324785021516,-0.8201558964351823,0.14413687250849555,0.36551318159652246,1
-0.9006456259411865,-0.6272349551007955,0.5805130256286006,-1.0697714212619565,0.13573986933237103,0
0.5416234287166247,0.8057740984086847,0.891772786087219,0.025359560054816148,0.14055614873645475,1
0.08423717758671724,0.2521115095527493,-0.5867110760912183,0.31778994966161356,0.5164229624336806,0
0.37803272575775304,0.7243531294592824,0.658327965743255,-0.9907872105969641,-0.10953439666583477,0
-0.7237005798836309,-0.8877820557388835,-1.2092305970084551,-0.32750936524587676,0.8175271214113987,1
